[2025-04-13 13:56:26.627926] 225
[2025-04-13 13:56:26.628926] 256
[2025-04-13 13:56:28.093653] 900
[2025-04-13 13:56:28.093653] 11881
[2025-04-13 13:56:28.093653] 30625
[2025-04-13 13:56:28.093653] 4294935249
[2025-04-13 13:56:28.100067] 23716
[2025-04-13 13:56:28.100067] 13456
[2025-04-13 13:56:28.100067] 6561
[2025-04-13 13:56:28.100067] 3025
[2025-04-13 13:56:28.100067] 1296
[2025-04-13 13:56:28.107295] 324
[2025-04-13 13:56:28.107295] 4
[2025-04-13 13:56:28.107295] 144
[2025-04-13 13:56:28.107295] 625
[2025-04-13 13:56:28.107295] 1225
[2025-04-13 13:56:28.107295] 1681
[2025-04-13 13:56:28.114184] 1764
[2025-04-13 13:56:28.114184] 1764
[2025-04-13 13:56:28.114184] 1764
[2025-04-13 13:56:28.114184] 1849
[2025-04-13 13:56:28.114184] 1936
[2025-04-13 13:56:28.121433] 2116
[2025-04-13 13:56:28.121433] 2500
[2025-04-13 13:56:28.121433] 2916
[2025-04-13 13:56:28.121433] 3249
[2025-04-13 13:56:28.121433] 3364
[2025-04-13 13:56:28.121433] 3249
[2025-04-13 13:56:28.127946] 3249
[2025-04-13 13:56:28.127946] 3025
[2025-04-13 13:56:28.127946] 2809
[2025-04-13 13:56:28.127946] 2116
[2025-04-13 13:56:28.127946] 1156
[2025-04-13 13:56:28.136102] 400
[2025-04-13 13:56:28.136102] 49
[2025-04-13 13:56:28.136102] 16
[2025-04-13 13:56:28.136102] 169
[2025-04-13 13:56:28.136102] 256
[2025-04-13 13:56:28.136102] 289
[2025-04-13 13:56:28.136102] 144
[2025-04-13 13:56:28.143960] 16
[2025-04-13 13:56:28.144951] 4
[2025-04-13 13:56:28.144951] 9
[2025-04-13 13:56:28.144951] 36
[2025-04-13 13:56:28.144951] 144
[2025-04-13 13:56:28.144951] 361
[2025-04-13 13:56:28.144951] 676
[2025-04-13 13:56:28.145952] 900
[2025-04-13 13:56:28.152675] 841
[2025-04-13 13:56:28.152675] 529
[2025-04-13 13:56:28.152675] 144
[2025-04-13 13:56:28.152675] 1
[2025-04-13 13:56:28.152675] 121
[2025-04-13 13:56:28.153656] 441
[2025-04-13 13:56:28.160625] 900
[2025-04-13 13:56:28.160625] 1369
[2025-04-13 13:56:28.160625] 1681
[2025-04-13 13:56:28.160625] 1444
[2025-04-13 13:56:28.160625] 841
[2025-04-13 13:56:28.160625] 324
[2025-04-13 13:56:28.168871] 49
[2025-04-13 13:56:28.168871] 16
[2025-04-13 13:56:28.168871] 256
[2025-04-13 13:56:28.168871] 625
[2025-04-13 13:56:28.168871] 841
[2025-04-13 13:56:28.168871] 841
[2025-04-13 13:56:28.169641] 576
[2025-04-13 13:56:28.176698] 289
[2025-04-13 13:56:28.176698] 64
[2025-04-13 13:56:28.177788] 0
[2025-04-13 13:56:28.177788] 100
[2025-04-13 13:56:28.177788] 324
[2025-04-13 13:56:28.177788] 625
[2025-04-13 13:56:28.177788] 729
[2025-04-13 13:56:28.185805] 676
[2025-04-13 13:56:28.185805] 529
[2025-04-13 13:56:28.185805] 361
[2025-04-13 13:56:28.185805] 169
[2025-04-13 13:56:28.185805] 16
[2025-04-13 13:56:28.185805] 4
[2025-04-13 13:56:28.185805] 81
[2025-04-13 13:56:28.194934] 196
[2025-04-13 13:56:28.194934] 256
[2025-04-13 13:56:28.194934] 225
[2025-04-13 13:56:28.194934] 121
[2025-04-13 13:56:28.194934] 64
[2025-04-13 13:56:28.194934] 25
[2025-04-13 13:56:28.194934] 1
[2025-04-13 13:56:28.194934] 4
[2025-04-13 13:56:28.203631] 49
[2025-04-13 13:56:28.203631] 144
[2025-04-13 13:56:28.203631] 256
[2025-04-13 13:56:28.203631] 289
[2025-04-13 13:56:28.203631] 225
[2025-04-13 13:56:28.203631] 64
[2025-04-13 13:56:28.203631] 4
[2025-04-13 13:56:28.213635] 9
[2025-04-13 13:56:28.213635] 36
[2025-04-13 13:56:28.213635] 64
[2025-04-13 13:56:28.213635] 25
[2025-04-13 13:56:28.213635] 4
[2025-04-13 13:56:28.213635] 0
[2025-04-13 13:56:28.213635] 4
[2025-04-13 13:56:28.214518] 1
[2025-04-13 13:56:28.214518] 1
[2025-04-13 13:56:28.214518] 16
[2025-04-13 13:56:28.224230] 64
[2025-04-13 13:56:28.224230] 100
[2025-04-13 13:56:28.224230] 49
[2025-04-13 13:56:28.224230] 4
[2025-04-13 13:56:28.224230] 1
[2025-04-13 13:56:28.224230] 16
[2025-04-13 13:56:28.224230] 36
[2025-04-13 13:56:28.224230] 49
[2025-04-13 13:56:28.231986] 64
[2025-04-13 13:56:28.231986] 36
[2025-04-13 13:56:28.232982] 9
[2025-04-13 13:56:28.232982] 4
[2025-04-13 13:56:28.232982] 49
[2025-04-13 13:56:28.232982] 121
[2025-04-13 13:56:28.232982] 169
[2025-04-13 13:56:28.232982] 144
[2025-04-13 13:56:28.241970] 100
[2025-04-13 13:56:28.241970] 100
[2025-04-13 13:56:28.241970] 100
[2025-04-13 13:56:28.241970] 64
[2025-04-13 13:56:28.241970] 25
[2025-04-13 13:56:28.241970] 1
[2025-04-13 13:56:28.241970] 49
[2025-04-13 13:56:28.250013] 144
[2025-04-13 13:56:28.250013] 289
[2025-04-13 13:56:28.250013] 289
[2025-04-13 13:56:28.250986] 196
[2025-04-13 13:56:28.250986] 64
[2025-04-13 13:56:28.250986] 0
[2025-04-13 13:56:28.250986] 64
[2025-04-13 13:56:28.258819] 196
[2025-04-13 13:56:28.258819] 324
[2025-04-13 13:56:28.258819] 361
[2025-04-13 13:56:28.258819] 361
[2025-04-13 13:56:28.258819] 289
[2025-04-13 13:56:28.258819] 196
[2025-04-13 13:56:28.258819] 81
[2025-04-13 13:56:28.267048] 36
[2025-04-13 13:56:28.267048] 0
[2025-04-13 13:56:28.267048] 36
[2025-04-13 13:56:28.267048] 196
[2025-04-13 13:56:28.267048] 400
[2025-04-13 13:56:28.267048] 529
[2025-04-13 13:56:28.267048] 484
[2025-04-13 13:56:28.275050] 196
[2025-04-13 13:56:28.275050] 36
[2025-04-13 13:56:28.275050] 9
[2025-04-13 13:56:28.275050] 121
[2025-04-13 13:56:28.276043] 289
[2025-04-13 13:56:28.276043] 400
[2025-04-13 13:56:28.276043] 484
[2025-04-13 13:56:28.283309] 441
[2025-04-13 13:56:28.283309] 400
[2025-04-13 13:56:28.284318] 256
[2025-04-13 13:56:28.284318] 81
[2025-04-13 13:56:28.284318] 0
[2025-04-13 13:56:28.284318] 81
[2025-04-13 13:56:28.284318] 289
[2025-04-13 13:56:28.293446] 484
[2025-04-13 13:56:28.293446] 441
[2025-04-13 13:56:28.293446] 256
[2025-04-13 13:56:28.293446] 49
[2025-04-13 13:56:28.293446] 0
[2025-04-13 13:56:28.293446] 25
[2025-04-13 13:56:28.293446] 64
[2025-04-13 13:56:28.293446] 81
[2025-04-13 13:56:28.301748] 121
[2025-04-13 13:56:28.301748] 225
[2025-04-13 13:56:28.301748] 361
[2025-04-13 13:56:28.301748] 324
[2025-04-13 13:56:28.301748] 225
[2025-04-13 13:56:28.301748] 64
[2025-04-13 13:56:28.301748] 0
[2025-04-13 13:56:28.311658] 36
[2025-04-13 13:56:28.311658] 144
[2025-04-13 13:56:28.311658] 289
[2025-04-13 13:56:28.311658] 324
[2025-04-13 13:56:28.311658] 225
[2025-04-13 13:56:28.311658] 64
[2025-04-13 13:56:28.311658] 0
[2025-04-13 13:56:28.317456] 36
[2025-04-13 13:56:28.317456] 100
[2025-04-13 13:56:28.318453] 169
[2025-04-13 13:56:28.318453] 196
[2025-04-13 13:56:28.318453] 225
[2025-04-13 13:56:28.318453] 196
[2025-04-13 13:56:28.318453] 144
[2025-04-13 13:56:28.326456] 100
[2025-04-13 13:56:28.326456] 25
[2025-04-13 13:56:28.327464] 0
[2025-04-13 13:56:28.327464] 49
[2025-04-13 13:56:28.327464] 169
[2025-04-13 13:56:28.327464] 289
[2025-04-13 13:56:28.327464] 324
[2025-04-13 13:56:28.335457] 196
[2025-04-13 13:56:28.335457] 36
[2025-04-13 13:56:28.335457] 4
[2025-04-13 13:56:28.335457] 100
[2025-04-13 13:56:28.335457] 196
[2025-04-13 13:56:28.335457] 256
[2025-04-13 13:56:28.335457] 324
[2025-04-13 13:56:28.343455] 324
[2025-04-13 13:56:28.343455] 256
[2025-04-13 13:56:28.344454] 144
[2025-04-13 13:56:28.344454] 49
[2025-04-13 13:56:28.344454] 1
[2025-04-13 13:56:28.344454] 25
[2025-04-13 13:56:28.344454] 121
[2025-04-13 13:56:28.352378] 289
[2025-04-13 13:56:28.352378] 324
[2025-04-13 13:56:28.352378] 289
[2025-04-13 13:56:28.352378] 121
[2025-04-13 13:56:28.352378] 25
[2025-04-13 13:56:28.352378] 9
[2025-04-13 13:56:28.352378] 81
[2025-04-13 13:56:28.360389] 169
[2025-04-13 13:56:28.360389] 225
[2025-04-13 13:56:28.360389] 256
[2025-04-13 13:56:28.360389] 225
[2025-04-13 13:56:28.360389] 144
[2025-04-13 13:56:28.361437] 100
[2025-04-13 13:56:28.361437] 64
[2025-04-13 13:56:28.368723] 9
[2025-04-13 13:56:28.368723] 4
[2025-04-13 13:56:28.368723] 64
[2025-04-13 13:56:28.368723] 169
[2025-04-13 13:56:28.368723] 256
[2025-04-13 13:56:28.368723] 256
[2025-04-13 13:56:28.369702] 121
[2025-04-13 13:56:28.376676] 16
[2025-04-13 13:56:28.377684] 9
[2025-04-13 13:56:28.377684] 81
[2025-04-13 13:56:28.377684] 169
[2025-04-13 13:56:28.377684] 225
[2025-04-13 13:56:28.377684] 256
[2025-04-13 13:56:28.377684] 256
[2025-04-13 13:56:28.386737] 144
[2025-04-13 13:56:28.386737] 64
[2025-04-13 13:56:28.386737] 9
[2025-04-13 13:56:28.386737] 1
[2025-04-13 13:56:28.386737] 9
[2025-04-13 13:56:28.386737] 49
[2025-04-13 13:56:28.386737] 144
[2025-04-13 13:56:28.386737] 169
[2025-04-13 13:56:28.386737] 81
[2025-04-13 13:56:28.397065] 16
[2025-04-13 13:56:28.397065] 4
[2025-04-13 13:56:28.397065] 25
[2025-04-13 13:56:28.397065] 36
[2025-04-13 13:56:28.397065] 36
[2025-04-13 13:56:28.397065] 64
[2025-04-13 13:56:28.397065] 64
[2025-04-13 13:56:28.397065] 81
[2025-04-13 13:56:28.406449] 81
[2025-04-13 13:56:28.406449] 81
[2025-04-13 13:56:28.406449] 49
[2025-04-13 13:56:28.406449] 4
[2025-04-13 13:56:28.406449] 4
[2025-04-13 13:56:28.406449] 49
[2025-04-13 13:56:28.406449] 100
[2025-04-13 13:56:28.406449] 144
[2025-04-13 13:56:28.414798] 81
[2025-04-13 13:56:28.414798] 25
[2025-04-13 13:56:28.414798] 0
[2025-04-13 13:56:28.414798] 25
[2025-04-13 13:56:28.414798] 100
[2025-04-13 13:56:28.414798] 121
[2025-04-13 13:56:28.414798] 144
[2025-04-13 13:56:28.423943] 144
[2025-04-13 13:56:28.423943] 100
[2025-04-13 13:56:28.423943] 49
[2025-04-13 13:56:28.424832] 16
[2025-04-13 13:56:28.424832] 1
[2025-04-13 13:56:28.424832] 4
[2025-04-13 13:56:28.424832] 49
[2025-04-13 13:56:28.424832] 100
[2025-04-13 13:56:28.432958] 121
[2025-04-13 13:56:28.432958] 144
[2025-04-13 13:56:28.432958] 64
[2025-04-13 13:56:28.432958] 1
[2025-04-13 13:56:28.432958] 25
[2025-04-13 13:56:28.432958] 144
[2025-04-13 13:56:28.432958] 256
[2025-04-13 13:56:28.441850] 324
[2025-04-13 13:56:28.441850] 256
[2025-04-13 13:56:28.442864] 169
[2025-04-13 13:56:28.442864] 81
[2025-04-13 13:56:28.442864] 25
[2025-04-13 13:56:28.442864] 4
[2025-04-13 13:56:28.442864] 1
[2025-04-13 13:56:28.442864] 36
[2025-04-13 13:56:28.449987] 121
[2025-04-13 13:56:28.450848] 256
[2025-04-13 13:56:28.450848] 324
[2025-04-13 13:56:28.450848] 256
[2025-04-13 13:56:28.450848] 100
[2025-04-13 13:56:28.450848] 4
[2025-04-13 13:56:28.450848] 49
[2025-04-13 13:56:28.458020] 169
[2025-04-13 13:56:28.458020] 289
[2025-04-13 13:56:28.458020] 361
[2025-04-13 13:56:28.458020] 400
[2025-04-13 13:56:28.458020] 324
[2025-04-13 13:56:28.458020] 225
[2025-04-13 13:56:28.466247] 121
[2025-04-13 13:56:28.466247] 25
[2025-04-13 13:56:28.466247] 4
[2025-04-13 13:56:28.466247] 81
[2025-04-13 13:56:28.466247] 169
[2025-04-13 13:56:28.466247] 225
[2025-04-13 13:56:28.467288] 289
[2025-04-13 13:56:28.467288] 289
[2025-04-13 13:56:28.475368] 169
[2025-04-13 13:56:28.475368] 36
[2025-04-13 13:56:28.475368] 1
[2025-04-13 13:56:28.475368] 49
[2025-04-13 13:56:28.475368] 121
[2025-04-13 13:56:28.475368] 225
[2025-04-13 13:56:28.475368] 361
[2025-04-13 13:56:28.483364] 361
[2025-04-13 13:56:28.483364] 289
[2025-04-13 13:56:28.483364] 225
[2025-04-13 13:56:28.483364] 144
[2025-04-13 13:56:28.483364] 16
[2025-04-13 13:56:28.483364] 25
[2025-04-13 13:56:28.483364] 169
[2025-04-13 13:56:28.492184] 361
[2025-04-13 13:56:28.492184] 441
[2025-04-13 13:56:28.492184] 289
[2025-04-13 13:56:28.493042] 100
[2025-04-13 13:56:28.493042] 4
[2025-04-13 13:56:28.493042] 9
[2025-04-13 13:56:28.493042] 64
[2025-04-13 13:56:28.499042] 121
[2025-04-13 13:56:28.500062] 225
[2025-04-13 13:56:28.500062] 256
[2025-04-13 13:56:28.500062] 289
[2025-04-13 13:56:28.500062] 225
[2025-04-13 13:56:28.500062] 169
[2025-04-13 13:56:28.500062] 81
[2025-04-13 13:56:28.509425] 9
[2025-04-13 13:56:28.509425] 4
[2025-04-13 13:56:28.509425] 81
[2025-04-13 13:56:28.509425] 256
[2025-04-13 13:56:28.509425] 324
[2025-04-13 13:56:28.509425] 169
[2025-04-13 13:56:28.509425] 25
[2025-04-13 13:56:28.509425] 1
[2025-04-13 13:56:28.518551] 36
[2025-04-13 13:56:28.518551] 64
[2025-04-13 13:56:28.518551] 64
[2025-04-13 13:56:28.518551] 81
[2025-04-13 13:56:28.518551] 81
[2025-04-13 13:56:28.518551] 81
[2025-04-13 13:56:28.518551] 81
[2025-04-13 13:56:28.518551] 81
[2025-04-13 13:56:28.527780] 49
[2025-04-13 13:56:28.527780] 9
[2025-04-13 13:56:28.528648] 4
[2025-04-13 13:56:28.528648] 81
[2025-04-13 13:56:28.528648] 196
[2025-04-13 13:56:28.528648] 225
[2025-04-13 13:56:28.528648] 121
[2025-04-13 13:56:28.535591] 16
[2025-04-13 13:56:28.536583] 16
[2025-04-13 13:56:28.536583] 121
[2025-04-13 13:56:28.536583] 169
[2025-04-13 13:56:28.536583] 169
[2025-04-13 13:56:28.536583] 121
[2025-04-13 13:56:28.536583] 81
[2025-04-13 13:56:28.545593] 64
[2025-04-13 13:56:28.545593] 36
[2025-04-13 13:56:28.545593] 16
[2025-04-13 13:56:28.545593] 1
[2025-04-13 13:56:28.545593] 9
[2025-04-13 13:56:28.545593] 64
[2025-04-13 13:56:28.545593] 144
[2025-04-13 13:56:28.546584] 196
[2025-04-13 13:56:28.554324] 169
[2025-04-13 13:56:28.554324] 64
[2025-04-13 13:56:28.554599] 4
[2025-04-13 13:56:28.554599] 16
[2025-04-13 13:56:28.554599] 64
[2025-04-13 13:56:28.554599] 121
[2025-04-13 13:56:28.554599] 144
[2025-04-13 13:56:28.554599] 225
[2025-04-13 13:56:28.562155] 289
[2025-04-13 13:56:28.562155] 324
[2025-04-13 13:56:28.563197] 256
[2025-04-13 13:56:28.563197] 100
[2025-04-13 13:56:28.563197] 4
[2025-04-13 13:56:28.563197] 36
[2025-04-13 13:56:28.563197] 144
[2025-04-13 13:56:28.571260] 289
[2025-04-13 13:56:28.571260] 400
[2025-04-13 13:56:28.571260] 324
[2025-04-13 13:56:28.571260] 144
[2025-04-13 13:56:28.571260] 25
[2025-04-13 13:56:28.571260] 9
[2025-04-13 13:56:28.571260] 100
[2025-04-13 13:56:28.579360] 225
[2025-04-13 13:56:28.579360] 324
[2025-04-13 13:56:28.579360] 361
[2025-04-13 13:56:28.579360] 289
[2025-04-13 13:56:28.579360] 169
[2025-04-13 13:56:28.579360] 100
[2025-04-13 13:56:28.587958] 25
[2025-04-13 13:56:28.587958] 0
[2025-04-13 13:56:28.587958] 36
[2025-04-13 13:56:28.587958] 169
[2025-04-13 13:56:28.587958] 289
[2025-04-13 13:56:28.587958] 361
[2025-04-13 13:56:28.588793] 256
[2025-04-13 13:56:28.595798] 100
[2025-04-13 13:56:28.595798] 1
[2025-04-13 13:56:28.595798] 36
[2025-04-13 13:56:28.595798] 169
[2025-04-13 13:56:28.595798] 256
[2025-04-13 13:56:28.596789] 324
[2025-04-13 13:56:28.596789] 324
[2025-04-13 13:56:28.604514] 256
[2025-04-13 13:56:28.604514] 169
[2025-04-13 13:56:28.604514] 100
[2025-04-13 13:56:28.604514] 36
[2025-04-13 13:56:28.604514] 0
[2025-04-13 13:56:28.604514] 64
[2025-04-13 13:56:28.604514] 169
[2025-04-13 13:56:28.613544] 225
[2025-04-13 13:56:28.613544] 256
[2025-04-13 13:56:28.613544] 196
[2025-04-13 13:56:28.613544] 81
[2025-04-13 13:56:28.613544] 9
[2025-04-13 13:56:28.614537] 9
[2025-04-13 13:56:28.614537] 81
[2025-04-13 13:56:28.614537] 196
[2025-04-13 13:56:28.622537] 361
[2025-04-13 13:56:28.622537] 361
[2025-04-13 13:56:28.622537] 225
[2025-04-13 13:56:28.622537] 100
[2025-04-13 13:56:28.623564] 49
[2025-04-13 13:56:28.623564] 9
[2025-04-13 13:56:28.623564] 1
[2025-04-13 13:56:28.623564] 25
[2025-04-13 13:56:28.631550] 100
[2025-04-13 13:56:28.631550] 225
[2025-04-13 13:56:28.631550] 225
[2025-04-13 13:56:28.631550] 121
[2025-04-13 13:56:28.631550] 16
[2025-04-13 13:56:28.631550] 4
[2025-04-13 13:56:28.632558] 64
[2025-04-13 13:56:28.638571] 169
[2025-04-13 13:56:28.639565] 225
[2025-04-13 13:56:28.639565] 225
[2025-04-13 13:56:28.639565] 169
[2025-04-13 13:56:28.639565] 121
[2025-04-13 13:56:28.639565] 81
[2025-04-13 13:56:28.639565] 36
[2025-04-13 13:56:28.648619] 1
[2025-04-13 13:56:28.648619] 9
[2025-04-13 13:56:28.648619] 81
[2025-04-13 13:56:28.648619] 169
[2025-04-13 13:56:28.648619] 225
[2025-04-13 13:56:28.648619] 196
[2025-04-13 13:56:28.648619] 100
[2025-04-13 13:56:28.656908] 16
[2025-04-13 13:56:28.656908] 4
[2025-04-13 13:56:28.656908] 49
[2025-04-13 13:56:28.656908] 100
[2025-04-13 13:56:28.656908] 121
[2025-04-13 13:56:28.656908] 144
[2025-04-13 13:56:28.656908] 196
[2025-04-13 13:56:28.664908] 256
[2025-04-13 13:56:28.664908] 256
[2025-04-13 13:56:28.664908] 144
[2025-04-13 13:56:28.664908] 4
[2025-04-13 13:56:28.664908] 25
[2025-04-13 13:56:28.665899] 121
[2025-04-13 13:56:28.665899] 225
[2025-04-13 13:56:28.673906] 289
[2025-04-13 13:56:28.673906] 196
[2025-04-13 13:56:28.673906] 49
[2025-04-13 13:56:28.673906] 0
[2025-04-13 13:56:28.673906] 25
[2025-04-13 13:56:28.673906] 64
[2025-04-13 13:56:28.673906] 100
[2025-04-13 13:56:28.673906] 169
[2025-04-13 13:56:28.683186] 196
[2025-04-13 13:56:28.683186] 196
[2025-04-13 13:56:28.683186] 169
[2025-04-13 13:56:28.683186] 121
[2025-04-13 13:56:28.683186] 36
[2025-04-13 13:56:28.683186] 0
[2025-04-13 13:56:28.683186] 49
[2025-04-13 13:56:28.691648] 169
[2025-04-13 13:56:28.691648] 256
[2025-04-13 13:56:28.691648] 289
[2025-04-13 13:56:28.691648] 144
[2025-04-13 13:56:28.691648] 49
[2025-04-13 13:56:28.691648] 0
[2025-04-13 13:56:28.691648] 36
[2025-04-13 13:56:28.699139] 144
[2025-04-13 13:56:28.699139] 225
[2025-04-13 13:56:28.699139] 324
[2025-04-13 13:56:28.699139] 289
[2025-04-13 13:56:28.699139] 196
[2025-04-13 13:56:28.699139] 121
[2025-04-13 13:56:28.699139] 49
[2025-04-13 13:56:28.708313] 9
[2025-04-13 13:56:28.708313] 9
[2025-04-13 13:56:28.708313] 81
[2025-04-13 13:56:28.708313] 196
[2025-04-13 13:56:28.708313] 289
[2025-04-13 13:56:28.708313] 225
[2025-04-13 13:56:28.708313] 121
[2025-04-13 13:56:28.716313] 25
[2025-04-13 13:56:28.716313] 4
[2025-04-13 13:56:28.716313] 81
[2025-04-13 13:56:28.717240] 169
[2025-04-13 13:56:28.717240] 256
[2025-04-13 13:56:28.717240] 324
[2025-04-13 13:56:28.717240] 256
[2025-04-13 13:56:28.725382] 169
[2025-04-13 13:56:28.726431] 100
[2025-04-13 13:56:28.726431] 25
[2025-04-13 13:56:28.726431] 1
[2025-04-13 13:56:28.726431] 9
[2025-04-13 13:56:28.726431] 81
[2025-04-13 13:56:28.726431] 196
[2025-04-13 13:56:28.727425] 289
[2025-04-13 13:56:28.734756] 196
[2025-04-13 13:56:28.734756] 64
[2025-04-13 13:56:28.734756] 1
[2025-04-13 13:56:28.734756] 16
[2025-04-13 13:56:28.734756] 81
[2025-04-13 13:56:28.734756] 144
[2025-04-13 13:56:28.734756] 169
[2025-04-13 13:56:28.742806] 196
[2025-04-13 13:56:28.742806] 169
[2025-04-13 13:56:28.742806] 121
[2025-04-13 13:56:28.742806] 49
[2025-04-13 13:56:28.743752] 25
[2025-04-13 13:56:28.743752] 0
[2025-04-13 13:56:28.743752] 36
[2025-04-13 13:56:28.743752] 121
[2025-04-13 13:56:28.752299] 225
[2025-04-13 13:56:28.752299] 256
[2025-04-13 13:56:28.752299] 121
[2025-04-13 13:56:28.752299] 36
[2025-04-13 13:56:28.752299] 0
[2025-04-13 13:56:28.752299] 36
[2025-04-13 13:56:28.752897] 121
[2025-04-13 13:56:28.759798] 256
[2025-04-13 13:56:28.759798] 289
[2025-04-13 13:56:28.759798] 256
[2025-04-13 13:56:28.759798] 225
[2025-04-13 13:56:28.759798] 121
[2025-04-13 13:56:28.759798] 64
[2025-04-13 13:56:28.759798] 16
[2025-04-13 13:56:28.769098] 4
[2025-04-13 13:56:28.769098] 49
[2025-04-13 13:56:28.769098] 144
[2025-04-13 13:56:28.769098] 289
[2025-04-13 13:56:28.769098] 324
[2025-04-13 13:56:28.769098] 256
[2025-04-13 13:56:28.769098] 81
[2025-04-13 13:56:28.777114] 1
[2025-04-13 13:56:28.777114] 36
[2025-04-13 13:56:28.777114] 144
[2025-04-13 13:56:28.778002] 225
[2025-04-13 13:56:28.778002] 289
[2025-04-13 13:56:28.778002] 289
[2025-04-13 13:56:28.778002] 289
[2025-04-13 13:56:28.785535] 169
[2025-04-13 13:56:28.785535] 100
[2025-04-13 13:56:28.785535] 16
[2025-04-13 13:56:28.785535] 1
[2025-04-13 13:56:28.785535] 16
[2025-04-13 13:56:28.785535] 49
[2025-04-13 13:56:28.785535] 121
[2025-04-13 13:56:28.794567] 196
[2025-04-13 13:56:28.794567] 256
[2025-04-13 13:56:28.794567] 196
[2025-04-13 13:56:28.794567] 36
[2025-04-13 13:56:28.795556] 4
[2025-04-13 13:56:28.795556] 81
[2025-04-13 13:56:28.795556] 225
[2025-04-13 13:56:28.803075] 324
[2025-04-13 13:56:28.803075] 400
[2025-04-13 13:56:28.803075] 324
[2025-04-13 13:56:28.803075] 196
[2025-04-13 13:56:28.803075] 81
[2025-04-13 13:56:28.803075] 4
[2025-04-13 13:56:28.803075] 16
[2025-04-13 13:56:28.803075] 100
[2025-04-13 13:56:28.812091] 225
[2025-04-13 13:56:28.812091] 324
[2025-04-13 13:56:28.812091] 256
[2025-04-13 13:56:28.812091] 121
[2025-04-13 13:56:28.812091] 16
[2025-04-13 13:56:28.812091] 1
[2025-04-13 13:56:28.812091] 49
[2025-04-13 13:56:28.819081] 144
[2025-04-13 13:56:28.819081] 256
[2025-04-13 13:56:28.819081] 361
[2025-04-13 13:56:28.819081] 289
[2025-04-13 13:56:28.820079] 144
[2025-04-13 13:56:28.820079] 64
[2025-04-13 13:56:28.820079] 36
[2025-04-13 13:56:28.828823] 4
[2025-04-13 13:56:28.828823] 9
[2025-04-13 13:56:28.828823] 64
[2025-04-13 13:56:28.828823] 169
[2025-04-13 13:56:28.828823] 225
[2025-04-13 13:56:28.829453] 169
[2025-04-13 13:56:28.829453] 64
[2025-04-13 13:56:28.829453] 9
[2025-04-13 13:56:28.836903] 1
[2025-04-13 13:56:28.836903] 36
[2025-04-13 13:56:28.836903] 121
[2025-04-13 13:56:28.836903] 225
[2025-04-13 13:56:28.837905] 256
[2025-04-13 13:56:28.837905] 289
[2025-04-13 13:56:28.837905] 169
[2025-04-13 13:56:28.846872] 100
[2025-04-13 13:56:28.846872] 16
[2025-04-13 13:56:28.846872] 0
[2025-04-13 13:56:28.846872] 36
[2025-04-13 13:56:28.846872] 121
[2025-04-13 13:56:28.846872] 196
[2025-04-13 13:56:28.846872] 196
[2025-04-13 13:56:28.855326] 121
[2025-04-13 13:56:28.855326] 49
[2025-04-13 13:56:28.855326] 0
[2025-04-13 13:56:28.855326] 16
[2025-04-13 13:56:28.855326] 64
[2025-04-13 13:56:28.855326] 144
[2025-04-13 13:56:28.855326] 225
[2025-04-13 13:56:28.863327] 289
[2025-04-13 13:56:28.863327] 256
[2025-04-13 13:56:28.863327] 196
[2025-04-13 13:56:28.863327] 121
[2025-04-13 13:56:28.863327] 36
[2025-04-13 13:56:28.863327] 4
[2025-04-13 13:56:28.863327] 100
[2025-04-13 13:56:28.872988] 256
[2025-04-13 13:56:28.872988] 400
[2025-04-13 13:56:28.872988] 324
[2025-04-13 13:56:28.872988] 121
[2025-04-13 13:56:28.872988] 16
[2025-04-13 13:56:28.872988] 9
[2025-04-13 13:56:28.872988] 100
[2025-04-13 13:56:28.880328] 225
[2025-04-13 13:56:28.880328] 256
[2025-04-13 13:56:28.880328] 196
[2025-04-13 13:56:28.880328] 169
[2025-04-13 13:56:28.880328] 144
[2025-04-13 13:56:28.880328] 144
[2025-04-13 13:56:28.880328] 64
[2025-04-13 13:56:28.888262] 1
[2025-04-13 13:56:28.888262] 16
[2025-04-13 13:56:28.888262] 81
[2025-04-13 13:56:28.889257] 169
[2025-04-13 13:56:28.889257] 225
[2025-04-13 13:56:28.889257] 225
[2025-04-13 13:56:28.889257] 121
[2025-04-13 13:56:28.897248] 16
[2025-04-13 13:56:28.897248] 9
[2025-04-13 13:56:28.897248] 81
[2025-04-13 13:56:28.897248] 169
[2025-04-13 13:56:28.897248] 225
[2025-04-13 13:56:28.897248] 225
[2025-04-13 13:56:28.897248] 169
[2025-04-13 13:56:28.906257] 100
[2025-04-13 13:56:28.906257] 81
[2025-04-13 13:56:28.906257] 36
[2025-04-13 13:56:28.907279] 16
[2025-04-13 13:56:28.907279] 0
[2025-04-13 13:56:28.907279] 49
[2025-04-13 13:56:28.907279] 196
[2025-04-13 13:56:28.907279] 324
[2025-04-13 13:56:28.914255] 324
[2025-04-13 13:56:28.915278] 169
[2025-04-13 13:56:28.915278] 9
[2025-04-13 13:56:28.915278] 36
[2025-04-13 13:56:28.915278] 169
[2025-04-13 13:56:28.915278] 256
[2025-04-13 13:56:28.915278] 324
[2025-04-13 13:56:28.923312] 324
[2025-04-13 13:56:28.923312] 196
[2025-04-13 13:56:28.923312] 121
[2025-04-13 13:56:28.923312] 49
[2025-04-13 13:56:28.923312] 9
[2025-04-13 13:56:28.923312] 1
[2025-04-13 13:56:28.923312] 49
[2025-04-13 13:56:28.932548] 144
[2025-04-13 13:56:28.932548] 225
[2025-04-13 13:56:28.932548] 225
[2025-04-13 13:56:28.932548] 144
[2025-04-13 13:56:28.932548] 49
[2025-04-13 13:56:28.932548] 0
[2025-04-13 13:56:28.932548] 25
[2025-04-13 13:56:28.932548] 81
[2025-04-13 13:56:28.939682] 144
[2025-04-13 13:56:28.939682] 256
[2025-04-13 13:56:28.939682] 289
[2025-04-13 13:56:28.939682] 256
[2025-04-13 13:56:28.939682] 144
[2025-04-13 13:56:28.940674] 64
[2025-04-13 13:56:28.940674] 16
[2025-04-13 13:56:28.948680] 0
[2025-04-13 13:56:28.948680] 25
[2025-04-13 13:56:28.948680] 121
[2025-04-13 13:56:28.949673] 256
[2025-04-13 13:56:28.949673] 289
[2025-04-13 13:56:28.949673] 169
[2025-04-13 13:56:28.949673] 25
[2025-04-13 13:56:28.957750] 1
[2025-04-13 13:56:28.957750] 64
[2025-04-13 13:56:28.957750] 144
[2025-04-13 13:56:28.957750] 196
[2025-04-13 13:56:28.957750] 225
[2025-04-13 13:56:28.957750] 256
[2025-04-13 13:56:28.957750] 196
[2025-04-13 13:56:28.967125] 121
[2025-04-13 13:56:28.968095] 64
[2025-04-13 13:56:28.968095] 1
[2025-04-13 13:56:28.968095] 25
[2025-04-13 13:56:28.968095] 144
[2025-04-13 13:56:28.968095] 289
[2025-04-13 13:56:28.968095] 289
[2025-04-13 13:56:28.974093] 169
[2025-04-13 13:56:28.975094] 49
[2025-04-13 13:56:28.975094] 1
[2025-04-13 13:56:28.975094] 9
[2025-04-13 13:56:28.975094] 49
[2025-04-13 13:56:28.975094] 121
[2025-04-13 13:56:28.975094] 169
[2025-04-13 13:56:28.975094] 256
[2025-04-13 13:56:28.983995] 256
[2025-04-13 13:56:28.983995] 225
[2025-04-13 13:56:28.983995] 121
[2025-04-13 13:56:28.983995] 49
[2025-04-13 13:56:28.983995] 1
[2025-04-13 13:56:28.983995] 16
[2025-04-13 13:56:28.983995] 100
[2025-04-13 13:56:28.991996] 225
[2025-04-13 13:56:28.991996] 289
[2025-04-13 13:56:28.991996] 225
[2025-04-13 13:56:28.991996] 81
[2025-04-13 13:56:28.992888] 4
[2025-04-13 13:56:28.992888] 25
[2025-04-13 13:56:28.992888] 100
[2025-04-13 13:56:29.000002] 169
[2025-04-13 13:56:29.001009] 225
[2025-04-13 13:56:29.001009] 256
[2025-04-13 13:56:29.001009] 225
[2025-04-13 13:56:29.001009] 144
[2025-04-13 13:56:29.001009] 81
[2025-04-13 13:56:29.001009] 25
[2025-04-13 13:56:29.009230] 1
[2025-04-13 13:56:29.009230] 36
[2025-04-13 13:56:29.009230] 144
[2025-04-13 13:56:29.009230] 225
[2025-04-13 13:56:29.009230] 256
[2025-04-13 13:56:29.009230] 196
[2025-04-13 13:56:29.009230] 64
[2025-04-13 13:56:29.016961] 1
[2025-04-13 13:56:29.017991] 100
[2025-04-13 13:56:29.017991] 225
[2025-04-13 13:56:29.017991] 196
[2025-04-13 13:56:29.017991] 121
[2025-04-13 13:56:29.017991] 64
[2025-04-13 13:56:29.017991] 64
[2025-04-13 13:56:29.026020] 100
[2025-04-13 13:56:29.026020] 144
[2025-04-13 13:56:29.026020] 100
[2025-04-13 13:56:29.026020] 16
[2025-04-13 13:56:29.026020] 4
[2025-04-13 13:56:29.026020] 100
[2025-04-13 13:56:29.026020] 256
[2025-04-13 13:56:29.033979] 361
[2025-04-13 13:56:29.033979] 225
[2025-04-13 13:56:29.034846] 64
[2025-04-13 13:56:29.034846] 0
[2025-04-13 13:56:29.034846] 25
[2025-04-13 13:56:29.034846] 81
[2025-04-13 13:56:29.034846] 144
[2025-04-13 13:56:29.034846] 225
[2025-04-13 13:56:29.043867] 324
[2025-04-13 13:56:29.043867] 289
[2025-04-13 13:56:29.043867] 169
[2025-04-13 13:56:29.043867] 81
[2025-04-13 13:56:29.043867] 9
[2025-04-13 13:56:29.043867] 4
[2025-04-13 13:56:29.043867] 81
[2025-04-13 13:56:29.051623] 225
[2025-04-13 13:56:29.051623] 361
[2025-04-13 13:56:29.051623] 324
[2025-04-13 13:56:29.052638] 169
[2025-04-13 13:56:29.052638] 36
[2025-04-13 13:56:29.052638] 4
[2025-04-13 13:56:29.052638] 81
[2025-04-13 13:56:29.059646] 196
[2025-04-13 13:56:29.061637] 289
[2025-04-13 13:56:29.061637] 361
[2025-04-13 13:56:29.062637] 361
[2025-04-13 13:56:29.062637] 225
[2025-04-13 13:56:29.062637] 100
[2025-04-13 13:56:29.062637] 25
[2025-04-13 13:56:29.068785] 0
[2025-04-13 13:56:29.068785] 49
[2025-04-13 13:56:29.068785] 121
[2025-04-13 13:56:29.068785] 225
[2025-04-13 13:56:29.068785] 256
[2025-04-13 13:56:29.068785] 169
[2025-04-13 13:56:29.068785] 81
[2025-04-13 13:56:29.068785] 9
[2025-04-13 13:56:29.077407] 9
[2025-04-13 13:56:29.077407] 100
[2025-04-13 13:56:29.077407] 225
[2025-04-13 13:56:29.078410] 289
[2025-04-13 13:56:29.078410] 324
[2025-04-13 13:56:29.078410] 225
[2025-04-13 13:56:29.086394] 121
[2025-04-13 13:56:29.086394] 49
[2025-04-13 13:56:29.086394] 16
[2025-04-13 13:56:29.086394] 1
[2025-04-13 13:56:29.086394] 36
[2025-04-13 13:56:29.086394] 121
[2025-04-13 13:56:29.086394] 196
[2025-04-13 13:56:29.086394] 196
[2025-04-13 13:56:29.095246] 144
[2025-04-13 13:56:29.095246] 49
[2025-04-13 13:56:29.095246] 0
[2025-04-13 13:56:29.095246] 25
[2025-04-13 13:56:29.095246] 81
[2025-04-13 13:56:29.095246] 144
[2025-04-13 13:56:29.095246] 169
[2025-04-13 13:56:29.103270] 225
[2025-04-13 13:56:29.103270] 256
[2025-04-13 13:56:29.103270] 225
[2025-04-13 13:56:29.103270] 121
[2025-04-13 13:56:29.103270] 16
[2025-04-13 13:56:29.104269] 9
[2025-04-13 13:56:29.104269] 81
[2025-04-13 13:56:29.112275] 169
[2025-04-13 13:56:29.112275] 225
[2025-04-13 13:56:29.113268] 144
[2025-04-13 13:56:29.113268] 49
[2025-04-13 13:56:29.113268] 9
[2025-04-13 13:56:29.113268] 1
[2025-04-13 13:56:29.113268] 4
[2025-04-13 13:56:29.113268] 36
[2025-04-13 13:56:29.121599] 121
[2025-04-13 13:56:29.121599] 196
[2025-04-13 13:56:29.122550] 289
[2025-04-13 13:56:29.122550] 225
[2025-04-13 13:56:29.122550] 121
[2025-04-13 13:56:29.122550] 49
[2025-04-13 13:56:29.122550] 4
[2025-04-13 13:56:29.122550] 9
[2025-04-13 13:56:29.130602] 64
[2025-04-13 13:56:29.130602] 169
[2025-04-13 13:56:29.130602] 225
[2025-04-13 13:56:29.130602] 196
[2025-04-13 13:56:29.130602] 81
[2025-04-13 13:56:29.130602] 4
[2025-04-13 13:56:29.130602] 9
[2025-04-13 13:56:29.130602] 64
[2025-04-13 13:56:29.139119] 100
[2025-04-13 13:56:29.139119] 169
[2025-04-13 13:56:29.139119] 256
[2025-04-13 13:56:29.139119] 324
[2025-04-13 13:56:29.139119] 256
[2025-04-13 13:56:29.139641] 144
[2025-04-13 13:56:29.147718] 64
[2025-04-13 13:56:29.147718] 9
[2025-04-13 13:56:29.147718] 4
[2025-04-13 13:56:29.147718] 64
[2025-04-13 13:56:29.147718] 196
[2025-04-13 13:56:29.147718] 324
[2025-04-13 13:56:29.147718] 324
[2025-04-13 13:56:29.147718] 169
[2025-04-13 13:56:29.156865] 36
[2025-04-13 13:56:29.156865] 1
[2025-04-13 13:56:29.156865] 81
[2025-04-13 13:56:29.156865] 196
[2025-04-13 13:56:29.156865] 256
[2025-04-13 13:56:29.156865] 256
[2025-04-13 13:56:29.156865] 225
[2025-04-13 13:56:29.164864] 169
[2025-04-13 13:56:29.164864] 100
[2025-04-13 13:56:29.164864] 49
[2025-04-13 13:56:29.165756] 1
[2025-04-13 13:56:29.165756] 16
[2025-04-13 13:56:29.165756] 100
[2025-04-13 13:56:29.165756] 196
[2025-04-13 13:56:29.173931] 225
[2025-04-13 13:56:29.173931] 196
[2025-04-13 13:56:29.173931] 81
[2025-04-13 13:56:29.173931] 4
[2025-04-13 13:56:29.173931] 16
[2025-04-13 13:56:29.173931] 100
[2025-04-13 13:56:29.173931] 169
[2025-04-13 13:56:29.181833] 225
[2025-04-13 13:56:29.181833] 225
[2025-04-13 13:56:29.181833] 169
[2025-04-13 13:56:29.181833] 144
[2025-04-13 13:56:29.182717] 169
[2025-04-13 13:56:29.182717] 144
[2025-04-13 13:56:29.182717] 16
[2025-04-13 13:56:29.189688] 36
[2025-04-13 13:56:29.190689] 225
[2025-04-13 13:56:29.190689] 361
[2025-04-13 13:56:29.190689] 361
[2025-04-13 13:56:29.190689] 225
[2025-04-13 13:56:29.190689] 81
[2025-04-13 13:56:29.190689] 4
[2025-04-13 13:56:29.197417] 16
[2025-04-13 13:56:29.197417] 121
[2025-04-13 13:56:29.198500] 225
[2025-04-13 13:56:29.198500] 289
[2025-04-13 13:56:29.198500] 289
[2025-04-13 13:56:29.198500] 225
[2025-04-13 13:56:29.198500] 169
[2025-04-13 13:56:29.207391] 81
[2025-04-13 13:56:29.207391] 9
[2025-04-13 13:56:29.207391] 4
[2025-04-13 13:56:29.207391] 81
[2025-04-13 13:56:29.207391] 196
[2025-04-13 13:56:29.207391] 289
[2025-04-13 13:56:29.207391] 256
[2025-04-13 13:56:29.215537] 144
[2025-04-13 13:56:29.215537] 25
[2025-04-13 13:56:29.215537] 4
[2025-04-13 13:56:29.215537] 81
[2025-04-13 13:56:29.215537] 196
[2025-04-13 13:56:29.215537] 256
[2025-04-13 13:56:29.215537] 256
[2025-04-13 13:56:29.224965] 225
[2025-04-13 13:56:29.224965] 121
[2025-04-13 13:56:29.224965] 64
[2025-04-13 13:56:29.224965] 36
[2025-04-13 13:56:29.224965] 4
[2025-04-13 13:56:29.224965] 4
[2025-04-13 13:56:29.226012] 64
[2025-04-13 13:56:29.226012] 169
[2025-04-13 13:56:29.233647] 196
[2025-04-13 13:56:29.233647] 169
[2025-04-13 13:56:29.233647] 100
[2025-04-13 13:56:29.233647] 36
[2025-04-13 13:56:29.233647] 1
[2025-04-13 13:56:29.233647] 36
[2025-04-13 13:56:29.233647] 100
[2025-04-13 13:56:29.241654] 225
[2025-04-13 13:56:29.241654] 324
[2025-04-13 13:56:29.241654] 361
[2025-04-13 13:56:29.241654] 256
[2025-04-13 13:56:29.241654] 121
[2025-04-13 13:56:29.241654] 36
[2025-04-13 13:56:29.241654] 0
[2025-04-13 13:56:29.241654] 25
[2025-04-13 13:56:29.250290] 121
[2025-04-13 13:56:29.250290] 256
[2025-04-13 13:56:29.250290] 361
[2025-04-13 13:56:29.250290] 289
[2025-04-13 13:56:29.250290] 144
[2025-04-13 13:56:29.250290] 9
[2025-04-13 13:56:29.250290] 25
[2025-04-13 13:56:29.258106] 100
[2025-04-13 13:56:29.258964] 196
[2025-04-13 13:56:29.258964] 256
[2025-04-13 13:56:29.258964] 289
[2025-04-13 13:56:29.258964] 256
[2025-04-13 13:56:29.258964] 169
[2025-04-13 13:56:29.266994] 100
[2025-04-13 13:56:29.266994] 25
[2025-04-13 13:56:29.266994] 4
[2025-04-13 13:56:29.266994] 81
[2025-04-13 13:56:29.266994] 121
[2025-04-13 13:56:29.266994] 144
[2025-04-13 13:56:29.266994] 121
[2025-04-13 13:56:29.276069] 100
[2025-04-13 13:56:29.276069] 49
[2025-04-13 13:56:29.276069] 4
[2025-04-13 13:56:29.276069] 9
[2025-04-13 13:56:29.276069] 81
[2025-04-13 13:56:29.276069] 144
[2025-04-13 13:56:29.276957] 256
[2025-04-13 13:56:29.276957] 289
[2025-04-13 13:56:29.284943] 256
[2025-04-13 13:56:29.284943] 169
[2025-04-13 13:56:29.284943] 64
[2025-04-13 13:56:29.284943] 9
[2025-04-13 13:56:29.284943] 16
[2025-04-13 13:56:29.284943] 121
[2025-04-13 13:56:29.284943] 225
[2025-04-13 13:56:29.292686] 289
[2025-04-13 13:56:29.292686] 256
[2025-04-13 13:56:29.293579] 100
[2025-04-13 13:56:29.293579] 16
[2025-04-13 13:56:29.293579] 4
[2025-04-13 13:56:29.293579] 64
[2025-04-13 13:56:29.293579] 169
[2025-04-13 13:56:29.301554] 256
[2025-04-13 13:56:29.301554] 361
[2025-04-13 13:56:29.301554] 361
[2025-04-13 13:56:29.301554] 196
[2025-04-13 13:56:29.301554] 64
[2025-04-13 13:56:29.301554] 4
[2025-04-13 13:56:29.301554] 16
[2025-04-13 13:56:29.302544] 64
[2025-04-13 13:56:29.310716] 100
[2025-04-13 13:56:29.310716] 144
[2025-04-13 13:56:29.310716] 144
[2025-04-13 13:56:29.311720] 144
[2025-04-13 13:56:29.311720] 81
[2025-04-13 13:56:29.311720] 9
[2025-04-13 13:56:29.311720] 4
[2025-04-13 13:56:29.317931] 64
[2025-04-13 13:56:29.317931] 144
[2025-04-13 13:56:29.318888] 225
[2025-04-13 13:56:29.318888] 256
[2025-04-13 13:56:29.318888] 256
[2025-04-13 13:56:29.318888] 225
[2025-04-13 13:56:29.318888] 169
[2025-04-13 13:56:29.327870] 81
[2025-04-13 13:56:29.327870] 4
[2025-04-13 13:56:29.327870] 16
[2025-04-13 13:56:29.327870] 121
[2025-04-13 13:56:29.327870] 256
[2025-04-13 13:56:29.327870] 289
[2025-04-13 13:56:29.327870] 225
[2025-04-13 13:56:29.336164] 100
[2025-04-13 13:56:29.336164] 9
[2025-04-13 13:56:29.336164] 4
[2025-04-13 13:56:29.336164] 49
[2025-04-13 13:56:29.336164] 144
[2025-04-13 13:56:29.336164] 289
[2025-04-13 13:56:29.336164] 324
[2025-04-13 13:56:29.344695] 225
[2025-04-13 13:56:29.344695] 121
[2025-04-13 13:56:29.344695] 64
[2025-04-13 13:56:29.344695] 25
[2025-04-13 13:56:29.344695] 0
[2025-04-13 13:56:29.344695] 25
[2025-04-13 13:56:29.344695] 121
[2025-04-13 13:56:29.344695] 256
[2025-04-13 13:56:29.353693] 289
[2025-04-13 13:56:29.353693] 196
[2025-04-13 13:56:29.353693] 64
[2025-04-13 13:56:29.353693] 1
[2025-04-13 13:56:29.354556] 36
[2025-04-13 13:56:29.354556] 144
[2025-04-13 13:56:29.354556] 225
[2025-04-13 13:56:29.362553] 324
[2025-04-13 13:56:29.362553] 324
[2025-04-13 13:56:29.362553] 256
[2025-04-13 13:56:29.362553] 144
[2025-04-13 13:56:29.362553] 64
[2025-04-13 13:56:29.362553] 9
[2025-04-13 13:56:29.362553] 16
[2025-04-13 13:56:29.369835] 121
[2025-04-13 13:56:29.370843] 169
[2025-04-13 13:56:29.370843] 196
[2025-04-13 13:56:29.370843] 169
[2025-04-13 13:56:29.370843] 144
[2025-04-13 13:56:29.370843] 49
[2025-04-13 13:56:29.371849] 0
[2025-04-13 13:56:29.378240] 64
[2025-04-13 13:56:29.378240] 144
[2025-04-13 13:56:29.378240] 225
[2025-04-13 13:56:29.378240] 225
[2025-04-13 13:56:29.378240] 225
[2025-04-13 13:56:29.378240] 169
[2025-04-13 13:56:29.378240] 100
[2025-04-13 13:56:29.387255] 36
[2025-04-13 13:56:29.387255] 1
[2025-04-13 13:56:29.387255] 9
[2025-04-13 13:56:29.387255] 81
[2025-04-13 13:56:29.387255] 196
[2025-04-13 13:56:29.387255] 256
[2025-04-13 13:56:29.387255] 196
[2025-04-13 13:56:29.396387] 81
[2025-04-13 13:56:29.396387] 9
[2025-04-13 13:56:29.396387] 4
[2025-04-13 13:56:29.397285] 25
[2025-04-13 13:56:29.397285] 64
[2025-04-13 13:56:29.397285] 121
[2025-04-13 13:56:29.397285] 169
[2025-04-13 13:56:29.397285] 256
[2025-04-13 13:56:29.405372] 256
[2025-04-13 13:56:29.405372] 196
[2025-04-13 13:56:29.405372] 100
[2025-04-13 13:56:29.405372] 16
[2025-04-13 13:56:29.405372] 9
[2025-04-13 13:56:29.405372] 81
[2025-04-13 13:56:29.405372] 196
[2025-04-13 13:56:29.413517] 256
[2025-04-13 13:56:29.413517] 225
[2025-04-13 13:56:29.413517] 100
[2025-04-13 13:56:29.413517] 16
[2025-04-13 13:56:29.413517] 4
[2025-04-13 13:56:29.413517] 64
[2025-04-13 13:56:29.413517] 144
[2025-04-13 13:56:29.423242] 196
[2025-04-13 13:56:29.423242] 225
[2025-04-13 13:56:29.423242] 225
[2025-04-13 13:56:29.423242] 144
[2025-04-13 13:56:29.423242] 81
[2025-04-13 13:56:29.423242] 36
[2025-04-13 13:56:29.423242] 4
[2025-04-13 13:56:29.423242] 0
[2025-04-13 13:56:29.431388] 25
[2025-04-13 13:56:29.431388] 144
[2025-04-13 13:56:29.431388] 289
[2025-04-13 13:56:29.431388] 324
[2025-04-13 13:56:29.431388] 169
[2025-04-13 13:56:29.431388] 36
[2025-04-13 13:56:29.431388] 1
[2025-04-13 13:56:29.439432] 64
[2025-04-13 13:56:29.439432] 196
[2025-04-13 13:56:29.439432] 361
[2025-04-13 13:56:29.439432] 361
[2025-04-13 13:56:29.439432] 256
[2025-04-13 13:56:29.439432] 121
[2025-04-13 13:56:29.440485] 64
[2025-04-13 13:56:29.448175] 49
[2025-04-13 13:56:29.448175] 1
[2025-04-13 13:56:29.448175] 25
[2025-04-13 13:56:29.448175] 196
[2025-04-13 13:56:29.448175] 324
[2025-04-13 13:56:29.448175] 289
[2025-04-13 13:56:29.448175] 196
[2025-04-13 13:56:29.456175] 49
[2025-04-13 13:56:29.457032] 0
[2025-04-13 13:56:29.457032] 25
[2025-04-13 13:56:29.457032] 100
[2025-04-13 13:56:29.457032] 169
[2025-04-13 13:56:29.457032] 289
[2025-04-13 13:56:29.457032] 324
[2025-04-13 13:56:29.465034] 289
[2025-04-13 13:56:29.465034] 169
[2025-04-13 13:56:29.465034] 100
[2025-04-13 13:56:29.465034] 16
[2025-04-13 13:56:29.465034] 9
[2025-04-13 13:56:29.465034] 81
[2025-04-13 13:56:29.466032] 196
[2025-04-13 13:56:29.466032] 289
[2025-04-13 13:56:29.474104] 256
[2025-04-13 13:56:29.474104] 144
[2025-04-13 13:56:29.474104] 25
[2025-04-13 13:56:29.474104] 1
[2025-04-13 13:56:29.474104] 49
[2025-04-13 13:56:29.474104] 121
[2025-04-13 13:56:29.474104] 225
[2025-04-13 13:56:29.482204] 256
[2025-04-13 13:56:29.482204] 289
[2025-04-13 13:56:29.482204] 225
[2025-04-13 13:56:29.483158] 144
[2025-04-13 13:56:29.483158] 81
[2025-04-13 13:56:29.483158] 9
[2025-04-13 13:56:29.483158] 9
[2025-04-13 13:56:29.491441] 121
[2025-04-13 13:56:29.491441] 289
[2025-04-13 13:56:29.491441] 400
[2025-04-13 13:56:29.491441] 324
[2025-04-13 13:56:29.491441] 100
[2025-04-13 13:56:29.491441] 4
[2025-04-13 13:56:29.491441] 36
[2025-04-13 13:56:29.499333] 121
[2025-04-13 13:56:29.499333] 225
[2025-04-13 13:56:29.499333] 256
[2025-04-13 13:56:29.499333] 324
[2025-04-13 13:56:29.499333] 225
[2025-04-13 13:56:29.499333] 121
[2025-04-13 13:56:29.499333] 64
[2025-04-13 13:56:29.507333] 16
[2025-04-13 13:56:29.507333] 0
[2025-04-13 13:56:29.508326] 16
[2025-04-13 13:56:29.508326] 81
[2025-04-13 13:56:29.508326] 169
[2025-04-13 13:56:29.508326] 225
[2025-04-13 13:56:29.508326] 169
[2025-04-13 13:56:29.516528] 64
[2025-04-13 13:56:29.516528] 1
[2025-04-13 13:56:29.516528] 16
[2025-04-13 13:56:29.516528] 100
[2025-04-13 13:56:29.516528] 169
[2025-04-13 13:56:29.516528] 225
[2025-04-13 13:56:29.516528] 256
[2025-04-13 13:56:29.525250] 196
[2025-04-13 13:56:29.525250] 121
[2025-04-13 13:56:29.525250] 64
[2025-04-13 13:56:29.525250] 9
[2025-04-13 13:56:29.525250] 9
[2025-04-13 13:56:29.525250] 81
[2025-04-13 13:56:29.526297] 169
[2025-04-13 13:56:29.526297] 225
[2025-04-13 13:56:29.535278] 169
[2025-04-13 13:56:29.535278] 49
[2025-04-13 13:56:29.535278] 1
[2025-04-13 13:56:29.535278] 9
[2025-04-13 13:56:29.535278] 36
[2025-04-13 13:56:29.535278] 64
[2025-04-13 13:56:29.535278] 100
[2025-04-13 13:56:29.535278] 196
[2025-04-13 13:56:29.543408] 196
[2025-04-13 13:56:29.543408] 169
[2025-04-13 13:56:29.543408] 121
[2025-04-13 13:56:29.543408] 64
[2025-04-13 13:56:29.543408] 9
[2025-04-13 13:56:29.543408] 9
[2025-04-13 13:56:29.543408] 100
[2025-04-13 13:56:29.552916] 196
[2025-04-13 13:56:29.552916] 196
[2025-04-13 13:56:29.552916] 169
[2025-04-13 13:56:29.552916] 64
[2025-04-13 13:56:29.552916] 9
[2025-04-13 13:56:29.553818] 0
[2025-04-13 13:56:29.553818] 16
[2025-04-13 13:56:29.553818] 64
[2025-04-13 13:56:29.561774] 169
[2025-04-13 13:56:29.561774] 324
[2025-04-13 13:56:29.561774] 361
[2025-04-13 13:56:29.562773] 225
[2025-04-13 13:56:29.562773] 81
[2025-04-13 13:56:29.562773] 9
[2025-04-13 13:56:29.562773] 0
[2025-04-13 13:56:29.562773] 4
[2025-04-13 13:56:29.570854] 36
[2025-04-13 13:56:29.570854] 81
[2025-04-13 13:56:29.570854] 144
[2025-04-13 13:56:29.570854] 144
[2025-04-13 13:56:29.570854] 100
[2025-04-13 13:56:29.570854] 25
[2025-04-13 13:56:29.570854] 1
[2025-04-13 13:56:29.578866] 36
[2025-04-13 13:56:29.578866] 81
[2025-04-13 13:56:29.578866] 169
[2025-04-13 13:56:29.579863] 225
[2025-04-13 13:56:29.579863] 225
[2025-04-13 13:56:29.579863] 144
[2025-04-13 13:56:29.579863] 81
[2025-04-13 13:56:29.587636] 64
[2025-04-13 13:56:29.587636] 25
[2025-04-13 13:56:29.587636] 0
[2025-04-13 13:56:29.587636] 49
[2025-04-13 13:56:29.587636] 169
[2025-04-13 13:56:29.587636] 256
[2025-04-13 13:56:29.587636] 256
[2025-04-13 13:56:29.587636] 144
[2025-04-13 13:56:29.596848] 25
[2025-04-13 13:56:29.596848] 1
[2025-04-13 13:56:29.596848] 64
[2025-04-13 13:56:29.596848] 144
[2025-04-13 13:56:29.596848] 225
[2025-04-13 13:56:29.596848] 289
[2025-04-13 13:56:29.596848] 196
[2025-04-13 13:56:29.604856] 121
[2025-04-13 13:56:29.604856] 49
[2025-04-13 13:56:29.604856] 25
[2025-04-13 13:56:29.604856] 0
[2025-04-13 13:56:29.604856] 16
[2025-04-13 13:56:29.605848] 81
[2025-04-13 13:56:29.605848] 169
[2025-04-13 13:56:29.614350] 225
[2025-04-13 13:56:29.614350] 169
[2025-04-13 13:56:29.614350] 81
[2025-04-13 13:56:29.614350] 9
[2025-04-13 13:56:29.614350] 9
[2025-04-13 13:56:29.614350] 81
[2025-04-13 13:56:29.614350] 196
[2025-04-13 13:56:29.614350] 256
[2025-04-13 13:56:29.622358] 256
[2025-04-13 13:56:29.623376] 256
[2025-04-13 13:56:29.623376] 196
[2025-04-13 13:56:29.623376] 144
[2025-04-13 13:56:29.623376] 64
[2025-04-13 13:56:29.623376] 1
[2025-04-13 13:56:29.623376] 36
[2025-04-13 13:56:29.631640] 169
[2025-04-13 13:56:29.631640] 289
[2025-04-13 13:56:29.631640] 361
[2025-04-13 13:56:29.631640] 256
[2025-04-13 13:56:29.631640] 100
[2025-04-13 13:56:29.631640] 4
[2025-04-13 13:56:29.631640] 25
[2025-04-13 13:56:29.639848] 169
[2025-04-13 13:56:29.639848] 225
[2025-04-13 13:56:29.639848] 256
[2025-04-13 13:56:29.639848] 256
[2025-04-13 13:56:29.639848] 225
[2025-04-13 13:56:29.639848] 144
[2025-04-13 13:56:29.639848] 64
[2025-04-13 13:56:29.647849] 9
[2025-04-13 13:56:29.647849] 9
[2025-04-13 13:56:29.647849] 49
[2025-04-13 13:56:29.647849] 100
[2025-04-13 13:56:29.648775] 169
[2025-04-13 13:56:29.648775] 169
[2025-04-13 13:56:29.648775] 144
[2025-04-13 13:56:29.657721] 64
[2025-04-13 13:56:29.657721] 4
[2025-04-13 13:56:29.657721] 9
[2025-04-13 13:56:29.657721] 81
[2025-04-13 13:56:29.657721] 196
[2025-04-13 13:56:29.658735] 256
[2025-04-13 13:56:29.658735] 289
[2025-04-13 13:56:29.658735] 225
[2025-04-13 13:56:29.666017] 144
[2025-04-13 13:56:29.666017] 81
[2025-04-13 13:56:29.666017] 25
[2025-04-13 13:56:29.666017] 0
[2025-04-13 13:56:29.666017] 36
[2025-04-13 13:56:29.666017] 121
[2025-04-13 13:56:29.666017] 256
[2025-04-13 13:56:29.674156] 225
[2025-04-13 13:56:29.674156] 144
[2025-04-13 13:56:29.674156] 64
[2025-04-13 13:56:29.674156] 9
[2025-04-13 13:56:29.674156] 9
[2025-04-13 13:56:29.675015] 121
[2025-04-13 13:56:29.675015] 289
[2025-04-13 13:56:29.675015] 361
[2025-04-13 13:56:29.684013] 324
[2025-04-13 13:56:29.684013] 225
[2025-04-13 13:56:29.684013] 144
[2025-04-13 13:56:29.684013] 64
[2025-04-13 13:56:29.684013] 9
[2025-04-13 13:56:29.685020] 9
[2025-04-13 13:56:29.685020] 100
[2025-04-13 13:56:29.692364] 256
[2025-04-13 13:56:29.692364] 361
[2025-04-13 13:56:29.692364] 289
[2025-04-13 13:56:29.692364] 121
[2025-04-13 13:56:29.692364] 9
[2025-04-13 13:56:29.692364] 16
[2025-04-13 13:56:29.692364] 64
[2025-04-13 13:56:29.700514] 121
[2025-04-13 13:56:29.700514] 196
[2025-04-13 13:56:29.700514] 256
[2025-04-13 13:56:29.700514] 256
[2025-04-13 13:56:29.700514] 196
[2025-04-13 13:56:29.700514] 121
[2025-04-13 13:56:29.701370] 49
[2025-04-13 13:56:29.708513] 1
[2025-04-13 13:56:29.708513] 36
[2025-04-13 13:56:29.708513] 121
[2025-04-13 13:56:29.708513] 225
[2025-04-13 13:56:29.709369] 256
[2025-04-13 13:56:29.709369] 169
[2025-04-13 13:56:29.709369] 64
[2025-04-13 13:56:29.717189] 1
[2025-04-13 13:56:29.717189] 25
[2025-04-13 13:56:29.717189] 81
[2025-04-13 13:56:29.717189] 144
[2025-04-13 13:56:29.717189] 196
[2025-04-13 13:56:29.717189] 225
[2025-04-13 13:56:29.717189] 225
[2025-04-13 13:56:29.725187] 169
[2025-04-13 13:56:29.726048] 100
[2025-04-13 13:56:29.726048] 25
[2025-04-13 13:56:29.726048] 1
[2025-04-13 13:56:29.726048] 64
[2025-04-13 13:56:29.726048] 100
[2025-04-13 13:56:29.726048] 169
[2025-04-13 13:56:29.734221] 169
[2025-04-13 13:56:29.734221] 121
[2025-04-13 13:56:29.734221] 49
[2025-04-13 13:56:29.734221] 0
[2025-04-13 13:56:29.734221] 36
[2025-04-13 13:56:29.734221] 100
[2025-04-13 13:56:29.734221] 169
[2025-04-13 13:56:29.734221] 196
[2025-04-13 13:56:29.743379] 225
[2025-04-13 13:56:29.743379] 169
[2025-04-13 13:56:29.743379] 121
[2025-04-13 13:56:29.743379] 81
[2025-04-13 13:56:29.743379] 25
[2025-04-13 13:56:29.743379] 0
[2025-04-13 13:56:29.743379] 36
[2025-04-13 13:56:29.751236] 169
[2025-04-13 13:56:29.752235] 324
[2025-04-13 13:56:29.752235] 361
[2025-04-13 13:56:29.752235] 196
[2025-04-13 13:56:29.752235] 36
[2025-04-13 13:56:29.752235] 0
[2025-04-13 13:56:29.752235] 64
[2025-04-13 13:56:29.760420] 144
[2025-04-13 13:56:29.760420] 256
[2025-04-13 13:56:29.760420] 289
[2025-04-13 13:56:29.760420] 289
[2025-04-13 13:56:29.760420] 196
[2025-04-13 13:56:29.760420] 121
[2025-04-13 13:56:29.761411] 64
[2025-04-13 13:56:29.768736] 4
[2025-04-13 13:56:29.768736] 9
[2025-04-13 13:56:29.768736] 81
[2025-04-13 13:56:29.768736] 169
[2025-04-13 13:56:29.768736] 225
[2025-04-13 13:56:29.768736] 196
[2025-04-13 13:56:29.768736] 81
[2025-04-13 13:56:29.768736] 16
[2025-04-13 13:56:29.776898] 1
[2025-04-13 13:56:29.776898] 36
[2025-04-13 13:56:29.776898] 121
[2025-04-13 13:56:29.777813] 196
[2025-04-13 13:56:29.777813] 256
[2025-04-13 13:56:29.777813] 225
[2025-04-13 13:56:29.777813] 196
[2025-04-13 13:56:29.786761] 100
[2025-04-13 13:56:29.786761] 64
[2025-04-13 13:56:29.786761] 9
[2025-04-13 13:56:29.786761] 4
[2025-04-13 13:56:29.786761] 64
[2025-04-13 13:56:29.786761] 169
[2025-04-13 13:56:29.786761] 289
[2025-04-13 13:56:29.794762] 324
[2025-04-13 13:56:29.794762] 169
[2025-04-13 13:56:29.794762] 25
[2025-04-13 13:56:29.794762] 9
[2025-04-13 13:56:29.794762] 100
[2025-04-13 13:56:29.794762] 225
[2025-04-13 13:56:29.794762] 324
[2025-04-13 13:56:29.803294] 361
[2025-04-13 13:56:29.803294] 289
[2025-04-13 13:56:29.803294] 169
[2025-04-13 13:56:29.803294] 81
[2025-04-13 13:56:29.803294] 16
[2025-04-13 13:56:29.803294] 1
[2025-04-13 13:56:29.803294] 49
[2025-04-13 13:56:29.803294] 144
[2025-04-13 13:56:29.812734] 256
[2025-04-13 13:56:29.812734] 225
[2025-04-13 13:56:29.812734] 169
[2025-04-13 13:56:29.812734] 49
[2025-04-13 13:56:29.812734] 1
[2025-04-13 13:56:29.812734] 16
[2025-04-13 13:56:29.812734] 81
[2025-04-13 13:56:29.821093] 144
[2025-04-13 13:56:29.821093] 289
[2025-04-13 13:56:29.821093] 400
[2025-04-13 13:56:29.821387] 400
[2025-04-13 13:56:29.821387] 225
[2025-04-13 13:56:29.821387] 81
[2025-04-13 13:56:29.821387] 4
[2025-04-13 13:56:29.829430] 25
[2025-04-13 13:56:29.829430] 144
[2025-04-13 13:56:29.829430] 196
[2025-04-13 13:56:29.829430] 256
[2025-04-13 13:56:29.829430] 256
[2025-04-13 13:56:29.829430] 169
[2025-04-13 13:56:29.829430] 36
[2025-04-13 13:56:29.837282] 4
[2025-04-13 13:56:29.837282] 81
[2025-04-13 13:56:29.837282] 196
[2025-04-13 13:56:29.838315] 289
[2025-04-13 13:56:29.838315] 361
[2025-04-13 13:56:29.838315] 324
[2025-04-13 13:56:29.838315] 169
[2025-04-13 13:56:29.846293] 64
[2025-04-13 13:56:29.846293] 25
[2025-04-13 13:56:29.846293] 1
[2025-04-13 13:56:29.846293] 16
[2025-04-13 13:56:29.846293] 64
[2025-04-13 13:56:29.846293] 144
[2025-04-13 13:56:29.846293] 225
[2025-04-13 13:56:29.853926] 225
[2025-04-13 13:56:29.854875] 121
[2025-04-13 13:56:29.854875] 25
[2025-04-13 13:56:29.854875] 1
[2025-04-13 13:56:29.854875] 64
[2025-04-13 13:56:29.854875] 144
[2025-04-13 13:56:29.854875] 225
[2025-04-13 13:56:29.854875] 256
[2025-04-13 13:56:29.864016] 225
[2025-04-13 13:56:29.864016] 169
[2025-04-13 13:56:29.864016] 100
[2025-04-13 13:56:29.864875] 64
[2025-04-13 13:56:29.864875] 9
[2025-04-13 13:56:29.864875] 9
[2025-04-13 13:56:29.864875] 81
[2025-04-13 13:56:29.872331] 196
[2025-04-13 13:56:29.872331] 225
[2025-04-13 13:56:29.872331] 169
[2025-04-13 13:56:29.873344] 81
[2025-04-13 13:56:29.873344] 16
[2025-04-13 13:56:29.873344] 1
[2025-04-13 13:56:29.873344] 49
[2025-04-13 13:56:29.873344] 121
[2025-04-13 13:56:29.881794] 225
[2025-04-13 13:56:29.881794] 225
[2025-04-13 13:56:29.881794] 196
[2025-04-13 13:56:29.881794] 121
[2025-04-13 13:56:29.881794] 81
[2025-04-13 13:56:29.881794] 36
[2025-04-13 13:56:29.881794] 4
[2025-04-13 13:56:29.889732] 1
[2025-04-13 13:56:29.889732] 49
[2025-04-13 13:56:29.889732] 144
[2025-04-13 13:56:29.889732] 225
[2025-04-13 13:56:29.889732] 196
[2025-04-13 13:56:29.889732] 81
[2025-04-13 13:56:29.889732] 16
[2025-04-13 13:56:29.889732] 1
[2025-04-13 13:56:29.898731] 36
[2025-04-13 13:56:29.898731] 121
[2025-04-13 13:56:29.898731] 196
[2025-04-13 13:56:29.898731] 289
[2025-04-13 13:56:29.898731] 289
[2025-04-13 13:56:29.898731] 196
[2025-04-13 13:56:29.906683] 144
[2025-04-13 13:56:29.906683] 49
[2025-04-13 13:56:29.906683] 0
[2025-04-13 13:56:29.906683] 36
[2025-04-13 13:56:29.906683] 169
[2025-04-13 13:56:29.907723] 289
[2025-04-13 13:56:29.907723] 324
[2025-04-13 13:56:29.915699] 225
[2025-04-13 13:56:29.915699] 64
[2025-04-13 13:56:29.915699] 0
[2025-04-13 13:56:29.915699] 49
[2025-04-13 13:56:29.915699] 144
[2025-04-13 13:56:29.915699] 256
[2025-04-13 13:56:29.915699] 256
[2025-04-13 13:56:29.915699] 256
[2025-04-13 13:56:29.924811] 196
[2025-04-13 13:56:29.924811] 144
[2025-04-13 13:56:29.924811] 81
[2025-04-13 13:56:29.924811] 25
[2025-04-13 13:56:29.924811] 4
[2025-04-13 13:56:29.924811] 100
[2025-04-13 13:56:29.924811] 256
[2025-04-13 13:56:29.933216] 361
[2025-04-13 13:56:29.933216] 289
[2025-04-13 13:56:29.933216] 121
[2025-04-13 13:56:29.933216] 16
[2025-04-13 13:56:29.933216] 4
[2025-04-13 13:56:29.933216] 49
[2025-04-13 13:56:29.933216] 144
[2025-04-13 13:56:29.940952] 289
[2025-04-13 13:56:29.941950] 289
[2025-04-13 13:56:29.941950] 196
[2025-04-13 13:56:29.941950] 144
[2025-04-13 13:56:29.941950] 100
[2025-04-13 13:56:29.941950] 49
[2025-04-13 13:56:29.942949] 9
[2025-04-13 13:56:29.950951] 4
[2025-04-13 13:56:29.950951] 64
[2025-04-13 13:56:29.950951] 169
[2025-04-13 13:56:29.950951] 225
[2025-04-13 13:56:29.950951] 169
[2025-04-13 13:56:29.950951] 81
[2025-04-13 13:56:29.950951] 16
[2025-04-13 13:56:29.950951] 0
[2025-04-13 13:56:29.957985] 36
[2025-04-13 13:56:29.957985] 144
[2025-04-13 13:56:29.957985] 289
[2025-04-13 13:56:29.958986] 324
[2025-04-13 13:56:29.958986] 256
[2025-04-13 13:56:29.958986] 144
[2025-04-13 13:56:29.958986] 81
[2025-04-13 13:56:29.966950] 36
[2025-04-13 13:56:29.966950] 1
[2025-04-13 13:56:29.967949] 16
[2025-04-13 13:56:29.967949] 100
[2025-04-13 13:56:29.967949] 225
[2025-04-13 13:56:29.967949] 289
[2025-04-13 13:56:29.967949] 196
[2025-04-13 13:56:29.975949] 81
[2025-04-13 13:56:29.975949] 9
[2025-04-13 13:56:29.975949] 4
[2025-04-13 13:56:29.975949] 64
[2025-04-13 13:56:29.976949] 121
[2025-04-13 13:56:29.976949] 196
[2025-04-13 13:56:29.976949] 256
[2025-04-13 13:56:29.983949] 256
[2025-04-13 13:56:29.984965] 196
[2025-04-13 13:56:29.984965] 144
[2025-04-13 13:56:29.984965] 64
[2025-04-13 13:56:29.984965] 4
[2025-04-13 13:56:29.984965] 16
[2025-04-13 13:56:29.984965] 100
[2025-04-13 13:56:29.984965] 225
[2025-04-13 13:56:29.993950] 256
[2025-04-13 13:56:29.993950] 196
[2025-04-13 13:56:29.993950] 81
[2025-04-13 13:56:29.993950] 4
[2025-04-13 13:56:29.993950] 16
[2025-04-13 13:56:29.994951] 81
[2025-04-13 13:56:29.994951] 144
[2025-04-13 13:56:30.001947] 225
[2025-04-13 13:56:30.001947] 256
[2025-04-13 13:56:30.001947] 289
[2025-04-13 13:56:30.001947] 196
[2025-04-13 13:56:30.001947] 121
[2025-04-13 13:56:30.002948] 49
[2025-04-13 13:56:30.002948] 0
[2025-04-13 13:56:30.010033] 64
[2025-04-13 13:56:30.010862] 196
[2025-04-13 13:56:30.010862] 289
[2025-04-13 13:56:30.010862] 289
[2025-04-13 13:56:30.010862] 144
[2025-04-13 13:56:30.010862] 49
[2025-04-13 13:56:30.010862] 0
[2025-04-13 13:56:30.018863] 16
[2025-04-13 13:56:30.018863] 100
[2025-04-13 13:56:30.018863] 225
[2025-04-13 13:56:30.018863] 289
[2025-04-13 13:56:30.018863] 289
[2025-04-13 13:56:30.018863] 169
[2025-04-13 13:56:30.018863] 100
[2025-04-13 13:56:30.027489] 49
[2025-04-13 13:56:30.027489] 9
[2025-04-13 13:56:30.027489] 4
[2025-04-13 13:56:30.027489] 64
[2025-04-13 13:56:30.027489] 196
[2025-04-13 13:56:30.027489] 324
[2025-04-13 13:56:30.027489] 256
[2025-04-13 13:56:30.036487] 100
[2025-04-13 13:56:30.036487] 9
[2025-04-13 13:56:30.037349] 4
[2025-04-13 13:56:30.037349] 36
[2025-04-13 13:56:30.037349] 121
[2025-04-13 13:56:30.037349] 256
[2025-04-13 13:56:30.037349] 324
[2025-04-13 13:56:30.037349] 324
[2025-04-13 13:56:30.044633] 225
[2025-04-13 13:56:30.045750] 121
[2025-04-13 13:56:30.045750] 49
[2025-04-13 13:56:30.045750] 9
[2025-04-13 13:56:30.045750] 16
[2025-04-13 13:56:30.045750] 100
[2025-04-13 13:56:30.046696] 225
[2025-04-13 13:56:30.053440] 324
[2025-04-13 13:56:30.053440] 256
[2025-04-13 13:56:30.053440] 100
[2025-04-13 13:56:30.054327] 9
[2025-04-13 13:56:30.054327] 4
[2025-04-13 13:56:30.054327] 49
[2025-04-13 13:56:30.054327] 169
[2025-04-13 13:56:30.061290] 289
[2025-04-13 13:56:30.062289] 289
[2025-04-13 13:56:30.062289] 256
[2025-04-13 13:56:30.062289] 144
[2025-04-13 13:56:30.062289] 100
[2025-04-13 13:56:30.062289] 49
[2025-04-13 13:56:30.062289] 4
[2025-04-13 13:56:30.062289] 25
[2025-04-13 13:56:30.071484] 121
[2025-04-13 13:56:30.071484] 256
[2025-04-13 13:56:30.071484] 256
[2025-04-13 13:56:30.071484] 196
[2025-04-13 13:56:30.071484] 64
[2025-04-13 13:56:30.071484] 1
[2025-04-13 13:56:30.071484] 16
[2025-04-13 13:56:30.078545] 81
[2025-04-13 13:56:30.078545] 144
[2025-04-13 13:56:30.078545] 196
[2025-04-13 13:56:30.078545] 289
[2025-04-13 13:56:30.078545] 256
[2025-04-13 13:56:30.078545] 144
[2025-04-13 13:56:30.078545] 64
[2025-04-13 13:56:30.087830] 9
[2025-04-13 13:56:30.087830] 1
[2025-04-13 13:56:30.087830] 49
[2025-04-13 13:56:30.087830] 100
[2025-04-13 13:56:30.087830] 196
[2025-04-13 13:56:30.087830] 225
[2025-04-13 13:56:30.087830] 144
[2025-04-13 13:56:30.095995] 36
[2025-04-13 13:56:30.095995] 0
[2025-04-13 13:56:30.096887] 36
[2025-04-13 13:56:30.096887] 100
[2025-04-13 13:56:30.096887] 196
[2025-04-13 13:56:30.096887] 225
[2025-04-13 13:56:30.096887] 256
[2025-04-13 13:56:30.105056] 225
[2025-04-13 13:56:30.105056] 121
[2025-04-13 13:56:30.105056] 64
[2025-04-13 13:56:30.105056] 16
[2025-04-13 13:56:30.105056] 4
[2025-04-13 13:56:30.105056] 64
[2025-04-13 13:56:30.105056] 169
[2025-04-13 13:56:30.105056] 225
[2025-04-13 13:56:30.114025] 225
[2025-04-13 13:56:30.114025] 144
[2025-04-13 13:56:30.114025] 36
[2025-04-13 13:56:30.114025] 1
[2025-04-13 13:56:30.114025] 81
[2025-04-13 13:56:30.114025] 169
[2025-04-13 13:56:30.114025] 225
[2025-04-13 13:56:30.122128] 361
[2025-04-13 13:56:30.122128] 324
[2025-04-13 13:56:30.123148] 225
[2025-04-13 13:56:30.123148] 121
[2025-04-13 13:56:30.123148] 36
[2025-04-13 13:56:30.123148] 0
[2025-04-13 13:56:30.123148] 36
[2025-04-13 13:56:30.131063] 144
[2025-04-13 13:56:30.131063] 256
[2025-04-13 13:56:30.131063] 324
[2025-04-13 13:56:30.131063] 225
[2025-04-13 13:56:30.131063] 100
[2025-04-13 13:56:30.131998] 9
[2025-04-13 13:56:30.131998] 16
[2025-04-13 13:56:30.138156] 100
[2025-04-13 13:56:30.138156] 169
[2025-04-13 13:56:30.138156] 225
[2025-04-13 13:56:30.139127] 256
[2025-04-13 13:56:30.139127] 225
[2025-04-13 13:56:30.139127] 144
[2025-04-13 13:56:30.147151] 100
[2025-04-13 13:56:30.147151] 49
[2025-04-13 13:56:30.147151] 4
[2025-04-13 13:56:30.147151] 16
[2025-04-13 13:56:30.147151] 100
[2025-04-13 13:56:30.147151] 256
[2025-04-13 13:56:30.147151] 256
[2025-04-13 13:56:30.147151] 196
[2025-04-13 13:56:30.156435] 64
[2025-04-13 13:56:30.156435] 1
[2025-04-13 13:56:30.156435] 16
[2025-04-13 13:56:30.156435] 121
[2025-04-13 13:56:30.156435] 196
[2025-04-13 13:56:30.156435] 289
[2025-04-13 13:56:30.156435] 289
[2025-04-13 13:56:30.164887] 256
[2025-04-13 13:56:30.164887] 144
[2025-04-13 13:56:30.164887] 81
[2025-04-13 13:56:30.164887] 9
[2025-04-13 13:56:30.164887] 1
[2025-04-13 13:56:30.164887] 49
[2025-04-13 13:56:30.164887] 144
[2025-04-13 13:56:30.173533] 256
[2025-04-13 13:56:30.174391] 256
[2025-04-13 13:56:30.174391] 121
[2025-04-13 13:56:30.174391] 25
[2025-04-13 13:56:30.174391] 1
[2025-04-13 13:56:30.174391] 25
[2025-04-13 13:56:30.174391] 81
[2025-04-13 13:56:30.174391] 169
[2025-04-13 13:56:30.182517] 196
[2025-04-13 13:56:30.182517] 196
[2025-04-13 13:56:30.182517] 169
[2025-04-13 13:56:30.182517] 121
[2025-04-13 13:56:30.182517] 81
[2025-04-13 13:56:30.182517] 25
[2025-04-13 13:56:30.182517] 0
[2025-04-13 13:56:30.190875] 36
[2025-04-13 13:56:30.190875] 144
[2025-04-13 13:56:30.190875] 256
[2025-04-13 13:56:30.190875] 289
[2025-04-13 13:56:30.190875] 169
[2025-04-13 13:56:30.190875] 64
[2025-04-13 13:56:30.190875] 0
[2025-04-13 13:56:30.199019] 49
[2025-04-13 13:56:30.199019] 169
[2025-04-13 13:56:30.199019] 256
[2025-04-13 13:56:30.199019] 289
[2025-04-13 13:56:30.199877] 324
[2025-04-13 13:56:30.199877] 225
[2025-04-13 13:56:30.199877] 100
[2025-04-13 13:56:30.207817] 49
[2025-04-13 13:56:30.207817] 4
[2025-04-13 13:56:30.207817] 16
[2025-04-13 13:56:30.207817] 100
[2025-04-13 13:56:30.207817] 256
[2025-04-13 13:56:30.207817] 324
[2025-04-13 13:56:30.207817] 256
[2025-04-13 13:56:30.215853] 81
[2025-04-13 13:56:30.215853] 0
[2025-04-13 13:56:30.215853] 49
[2025-04-13 13:56:30.216826] 100
[2025-04-13 13:56:30.216826] 144
[2025-04-13 13:56:30.216826] 169
[2025-04-13 13:56:30.216826] 225
[2025-04-13 13:56:30.223825] 225
[2025-04-13 13:56:30.224827] 196
[2025-04-13 13:56:30.224827] 121
[2025-04-13 13:56:30.224827] 36
[2025-04-13 13:56:30.224827] 0
[2025-04-13 13:56:30.224827] 36
[2025-04-13 13:56:30.224827] 121
[2025-04-13 13:56:30.233823] 289
[2025-04-13 13:56:30.233823] 324
[2025-04-13 13:56:30.233823] 256
[2025-04-13 13:56:30.234824] 81
[2025-04-13 13:56:30.234824] 4
[2025-04-13 13:56:30.234824] 16
[2025-04-13 13:56:30.234824] 81
[2025-04-13 13:56:30.234824] 144
[2025-04-13 13:56:30.241858] 196
[2025-04-13 13:56:30.242842] 256
[2025-04-13 13:56:30.242842] 256
[2025-04-13 13:56:30.242842] 196
[2025-04-13 13:56:30.242842] 100
[2025-04-13 13:56:30.242842] 36
[2025-04-13 13:56:30.242842] 0
[2025-04-13 13:56:30.249825] 36
[2025-04-13 13:56:30.250828] 121
[2025-04-13 13:56:30.250828] 256
[2025-04-13 13:56:30.250828] 256
[2025-04-13 13:56:30.250828] 144
[2025-04-13 13:56:30.250828] 16
[2025-04-13 13:56:30.250828] 9
[2025-04-13 13:56:30.258835] 81
[2025-04-13 13:56:30.258835] 144
[2025-04-13 13:56:30.258835] 196
[2025-04-13 13:56:30.258835] 196
[2025-04-13 13:56:30.258835] 169
[2025-04-13 13:56:30.259825] 144
[2025-04-13 13:56:30.259825] 81
[2025-04-13 13:56:30.266851] 36
[2025-04-13 13:56:30.266851] 4
[2025-04-13 13:56:30.267825] 16
[2025-04-13 13:56:30.267825] 81
[2025-04-13 13:56:30.267825] 196
[2025-04-13 13:56:30.267825] 289
[2025-04-13 13:56:30.267825] 225
[2025-04-13 13:56:30.276089] 100
[2025-04-13 13:56:30.276089] 16
[2025-04-13 13:56:30.276089] 1
[2025-04-13 13:56:30.276089] 64
[2025-04-13 13:56:30.276089] 169
[2025-04-13 13:56:30.276089] 256
[2025-04-13 13:56:30.276089] 289
[2025-04-13 13:56:30.284978] 324
[2025-04-13 13:56:30.284978] 225
[2025-04-13 13:56:30.284978] 144
[2025-04-13 13:56:30.284978] 64
[2025-04-13 13:56:30.284978] 1
[2025-04-13 13:56:30.284978] 16
[2025-04-13 13:56:30.284978] 81
[2025-04-13 13:56:30.285862] 169
[2025-04-13 13:56:30.293831] 225
[2025-04-13 13:56:30.293831] 225
[2025-04-13 13:56:30.293831] 121
[2025-04-13 13:56:30.293831] 36
[2025-04-13 13:56:30.293831] 0
[2025-04-13 13:56:30.294913] 25
[2025-04-13 13:56:30.294913] 100
[2025-04-13 13:56:30.302109] 196
[2025-04-13 13:56:30.302109] 289
[2025-04-13 13:56:30.302109] 289
[2025-04-13 13:56:30.302109] 225
[2025-04-13 13:56:30.302109] 144
[2025-04-13 13:56:30.302109] 64
[2025-04-13 13:56:30.302109] 0
[2025-04-13 13:56:30.310118] 36
[2025-04-13 13:56:30.310118] 144
[2025-04-13 13:56:30.310118] 225
[2025-04-13 13:56:30.311116] 225
[2025-04-13 13:56:30.311116] 121
[2025-04-13 13:56:30.311116] 36
[2025-04-13 13:56:30.311116] 0
[2025-04-13 13:56:30.318137] 16
[2025-04-13 13:56:30.319128] 49
[2025-04-13 13:56:30.319128] 100
[2025-04-13 13:56:30.319128] 225
[2025-04-13 13:56:30.319128] 289
[2025-04-13 13:56:30.319128] 225
[2025-04-13 13:56:30.319128] 144
[2025-04-13 13:56:30.327447] 81
[2025-04-13 13:56:30.327447] 25
[2025-04-13 13:56:30.327447] 0
[2025-04-13 13:56:30.327447] 25
[2025-04-13 13:56:30.327447] 144
[2025-04-13 13:56:30.327447] 256
[2025-04-13 13:56:30.327447] 289
[2025-04-13 13:56:30.335650] 169
[2025-04-13 13:56:30.335650] 36
[2025-04-13 13:56:30.335650] 4
[2025-04-13 13:56:30.335650] 64
[2025-04-13 13:56:30.335650] 121
[2025-04-13 13:56:30.335650] 121
[2025-04-13 13:56:30.335650] 169
[2025-04-13 13:56:30.335650] 225
[2025-04-13 13:56:30.344669] 256
[2025-04-13 13:56:30.344669] 196
[2025-04-13 13:56:30.344669] 121
[2025-04-13 13:56:30.344669] 16
[2025-04-13 13:56:30.344669] 4
[2025-04-13 13:56:30.344669] 64
[2025-04-13 13:56:30.344669] 196
[2025-04-13 13:56:30.353212] 289
[2025-04-13 13:56:30.353212] 256
[2025-04-13 13:56:30.353212] 144
[2025-04-13 13:56:30.353212] 16
[2025-04-13 13:56:30.353212] 4
[2025-04-13 13:56:30.353212] 49
[2025-04-13 13:56:30.353212] 100
[2025-04-13 13:56:30.361350] 169
[2025-04-13 13:56:30.361350] 225
[2025-04-13 13:56:30.361350] 225
[2025-04-13 13:56:30.361350] 196
[2025-04-13 13:56:30.362251] 121
[2025-04-13 13:56:30.362251] 49
[2025-04-13 13:56:30.362251] 4
[2025-04-13 13:56:30.371089] 9
[2025-04-13 13:56:30.371089] 81
[2025-04-13 13:56:30.372394] 196
[2025-04-13 13:56:30.373372] 256
[2025-04-13 13:56:30.373372] 196
[2025-04-13 13:56:30.373372] 81
[2025-04-13 13:56:30.373372] 9
[2025-04-13 13:56:30.373372] 4
[2025-04-13 13:56:30.379390] 49
[2025-04-13 13:56:30.379390] 121
[2025-04-13 13:56:30.379390] 225
[2025-04-13 13:56:30.379390] 256
[2025-04-13 13:56:30.379390] 225
[2025-04-13 13:56:30.379390] 144
[2025-04-13 13:56:30.379390] 81
[2025-04-13 13:56:30.387574] 25
[2025-04-13 13:56:30.387574] 1
[2025-04-13 13:56:30.387574] 36
[2025-04-13 13:56:30.387574] 100
[2025-04-13 13:56:30.388571] 169
[2025-04-13 13:56:30.388571] 196
[2025-04-13 13:56:30.388571] 144
[2025-04-13 13:56:30.396568] 36
[2025-04-13 13:56:30.396568] 1
[2025-04-13 13:56:30.396568] 81
[2025-04-13 13:56:30.396568] 169
[2025-04-13 13:56:30.396568] 196
[2025-04-13 13:56:30.396568] 169
[2025-04-13 13:56:30.396568] 169
[2025-04-13 13:56:30.405658] 121
[2025-04-13 13:56:30.405658] 81
[2025-04-13 13:56:30.405658] 49
[2025-04-13 13:56:30.405658] 16
[2025-04-13 13:56:30.406652] 1
[2025-04-13 13:56:30.406652] 36
[2025-04-13 13:56:30.406652] 121
[2025-04-13 13:56:30.406652] 169
[2025-04-13 13:56:30.413827] 196
[2025-04-13 13:56:30.413827] 144
[2025-04-13 13:56:30.413827] 64
[2025-04-13 13:56:30.413827] 4
[2025-04-13 13:56:30.413827] 4
[2025-04-13 13:56:30.414837] 36
[2025-04-13 13:56:30.414837] 100
[2025-04-13 13:56:30.422074] 225
[2025-04-13 13:56:30.422074] 400
[2025-04-13 13:56:30.423096] 400
[2025-04-13 13:56:30.423096] 324
[2025-04-13 13:56:30.423096] 169
[2025-04-13 13:56:30.423096] 36
[2025-04-13 13:56:30.423096] 4
[2025-04-13 13:56:30.423096] 81
[2025-04-13 13:56:30.431740] 225
[2025-04-13 13:56:30.431740] 324
[2025-04-13 13:56:30.431740] 324
[2025-04-13 13:56:30.431740] 144
[2025-04-13 13:56:30.431740] 25
[2025-04-13 13:56:30.431740] 4
[2025-04-13 13:56:30.431740] 49
[2025-04-13 13:56:30.438604] 144
[2025-04-13 13:56:30.439597] 225
[2025-04-13 13:56:30.439597] 289
[2025-04-13 13:56:30.439597] 256
[2025-04-13 13:56:30.439597] 196
[2025-04-13 13:56:30.439597] 121
[2025-04-13 13:56:30.447780] 64
[2025-04-13 13:56:30.447780] 9
[2025-04-13 13:56:30.447780] 16
[2025-04-13 13:56:30.447780] 100
[2025-04-13 13:56:30.447780] 225
[2025-04-13 13:56:30.447780] 289
[2025-04-13 13:56:30.447780] 256
[2025-04-13 13:56:30.455840] 144
[2025-04-13 13:56:30.455840] 25
[2025-04-13 13:56:30.455840] 4
[2025-04-13 13:56:30.455840] 81
[2025-04-13 13:56:30.455840] 196
[2025-04-13 13:56:30.455840] 256
[2025-04-13 13:56:30.456819] 256
[2025-04-13 13:56:30.456819] 256
[2025-04-13 13:56:30.465790] 169
[2025-04-13 13:56:30.466146] 100
[2025-04-13 13:56:30.466146] 36
[2025-04-13 13:56:30.466146] 0
[2025-04-13 13:56:30.466146] 25
[2025-04-13 13:56:30.466146] 100
[2025-04-13 13:56:30.466146] 196
[2025-04-13 13:56:30.473418] 289
[2025-04-13 13:56:30.473418] 256
[2025-04-13 13:56:30.473418] 121
[2025-04-13 13:56:30.474275] 16
[2025-04-13 13:56:30.474275] 9
[2025-04-13 13:56:30.474275] 121
[2025-04-13 13:56:30.474275] 256
[2025-04-13 13:56:30.482276] 324
[2025-04-13 13:56:30.482276] 361
[2025-04-13 13:56:30.482276] 324
[2025-04-13 13:56:30.482276] 196
[2025-04-13 13:56:30.482276] 81
[2025-04-13 13:56:30.482276] 4
[2025-04-13 13:56:30.482276] 9
[2025-04-13 13:56:30.491451] 81
[2025-04-13 13:56:30.491451] 121
[2025-04-13 13:56:30.491451] 121
[2025-04-13 13:56:30.491451] 100
[2025-04-13 13:56:30.491451] 81
[2025-04-13 13:56:30.491451] 25
[2025-04-13 13:56:30.491451] 0
[2025-04-13 13:56:30.491451] 16
[2025-04-13 13:56:30.500142] 49
[2025-04-13 13:56:30.500142] 64
[2025-04-13 13:56:30.500142] 81
[2025-04-13 13:56:30.500142] 100
[2025-04-13 13:56:30.500142] 121
[2025-04-13 13:56:30.500142] 121
[2025-04-13 13:56:30.500142] 100
[2025-04-13 13:56:30.508004] 49
[2025-04-13 13:56:30.508004] 1
[2025-04-13 13:56:30.508004] 25
[2025-04-13 13:56:30.509025] 144
[2025-04-13 13:56:30.509025] 225
[2025-04-13 13:56:30.509025] 169
[2025-04-13 13:56:30.509025] 64
[2025-04-13 13:56:30.509025] 9
[2025-04-13 13:56:30.518004] 0
[2025-04-13 13:56:30.518004] 9
[2025-04-13 13:56:30.518004] 36
[2025-04-13 13:56:30.518004] 100
[2025-04-13 13:56:30.518004] 196
[2025-04-13 13:56:30.518004] 256
[2025-04-13 13:56:30.518004] 289
[2025-04-13 13:56:30.526004] 256
[2025-04-13 13:56:30.526004] 169
[2025-04-13 13:56:30.526004] 36
[2025-04-13 13:56:30.527007] 4
[2025-04-13 13:56:30.527007] 121
[2025-04-13 13:56:30.527007] 289
[2025-04-13 13:56:30.527007] 361
[2025-04-13 13:56:30.534008] 289
[2025-04-13 13:56:30.535006] 121
[2025-04-13 13:56:30.535006] 25
[2025-04-13 13:56:30.535006] 1
[2025-04-13 13:56:30.535006] 49
[2025-04-13 13:56:30.535006] 100
[2025-04-13 13:56:30.535006] 169
[2025-04-13 13:56:30.543008] 225
[2025-04-13 13:56:30.543008] 225
[2025-04-13 13:56:30.543008] 144
[2025-04-13 13:56:30.543008] 100
[2025-04-13 13:56:30.543008] 64
[2025-04-13 13:56:30.543008] 16
[2025-04-13 13:56:30.543008] 1
[2025-04-13 13:56:30.543008] 64
[2025-04-13 13:56:30.552004] 144
[2025-04-13 13:56:30.552004] 196
[2025-04-13 13:56:30.552004] 121
[2025-04-13 13:56:30.553005] 36
[2025-04-13 13:56:30.553005] 0
[2025-04-13 13:56:30.553005] 16
[2025-04-13 13:56:30.553005] 49
[2025-04-13 13:56:30.560004] 100
[2025-04-13 13:56:30.560004] 100
[2025-04-13 13:56:30.560004] 100
[2025-04-13 13:56:30.560004] 121
[2025-04-13 13:56:30.560004] 144
[2025-04-13 13:56:30.560004] 121
[2025-04-13 13:56:30.560004] 49
[2025-04-13 13:56:30.569004] 4
[2025-04-13 13:56:30.569004] 9
[2025-04-13 13:56:30.569004] 81
[2025-04-13 13:56:30.569004] 169
[2025-04-13 13:56:30.569004] 225
[2025-04-13 13:56:30.570003] 196
[2025-04-13 13:56:30.570003] 64
[2025-04-13 13:56:30.570003] 0
[2025-04-13 13:56:30.577004] 36
[2025-04-13 13:56:30.578005] 100
[2025-04-13 13:56:30.578005] 169
[2025-04-13 13:56:30.578005] 169
[2025-04-13 13:56:30.578005] 169
[2025-04-13 13:56:30.578005] 144
[2025-04-13 13:56:30.586005] 121
[2025-04-13 13:56:30.586005] 100
[2025-04-13 13:56:30.586005] 36
[2025-04-13 13:56:30.586005] 0
[2025-04-13 13:56:30.586005] 49
[2025-04-13 13:56:30.587003] 169
[2025-04-13 13:56:30.587003] 289
[2025-04-13 13:56:30.594008] 256
[2025-04-13 13:56:30.595008] 144
[2025-04-13 13:56:30.595008] 25
[2025-04-13 13:56:30.595008] 1
[2025-04-13 13:56:30.595008] 49
[2025-04-13 13:56:30.595008] 121
[2025-04-13 13:56:30.595008] 196
[2025-04-13 13:56:30.596005] 289
[2025-04-13 13:56:30.603783] 289
[2025-04-13 13:56:30.603783] 225
[2025-04-13 13:56:30.603783] 144
[2025-04-13 13:56:30.603783] 81
[2025-04-13 13:56:30.603783] 9
[2025-04-13 13:56:30.603783] 25
[2025-04-13 13:56:30.603783] 100
[2025-04-13 13:56:30.612317] 169
[2025-04-13 13:56:30.612317] 225
[2025-04-13 13:56:30.612317] 196
[2025-04-13 13:56:30.612317] 100
[2025-04-13 13:56:30.612317] 16
[2025-04-13 13:56:30.612317] 4
[2025-04-13 13:56:30.612317] 49
[2025-04-13 13:56:30.619455] 100
[2025-04-13 13:56:30.619455] 144
[2025-04-13 13:56:30.619455] 169
[2025-04-13 13:56:30.619455] 196
[2025-04-13 13:56:30.619455] 169
[2025-04-13 13:56:30.619455] 121
[2025-04-13 13:56:30.620356] 81
[2025-04-13 13:56:30.628323] 9
[2025-04-13 13:56:30.629340] 9
[2025-04-13 13:56:30.629340] 64
[2025-04-13 13:56:30.629340] 169
[2025-04-13 13:56:30.629340] 256
[2025-04-13 13:56:30.629340] 225
[2025-04-13 13:56:30.629340] 144
[2025-04-13 13:56:30.637301] 36
[2025-04-13 13:56:30.637301] 0
[2025-04-13 13:56:30.637301] 64
[2025-04-13 13:56:30.637301] 169
[2025-04-13 13:56:30.637301] 256
[2025-04-13 13:56:30.637301] 324
[2025-04-13 13:56:30.638301] 289
[2025-04-13 13:56:30.645306] 196
[2025-04-13 13:56:30.645306] 81
[2025-04-13 13:56:30.645306] 36
[2025-04-13 13:56:30.646299] 0
[2025-04-13 13:56:30.646299] 36
[2025-04-13 13:56:30.646299] 100
[2025-04-13 13:56:30.646299] 169
[2025-04-13 13:56:30.646299] 169
[2025-04-13 13:56:30.655245] 169
[2025-04-13 13:56:30.655245] 64
[2025-04-13 13:56:30.655245] 1
[2025-04-13 13:56:30.655245] 25
[2025-04-13 13:56:30.655245] 144
[2025-04-13 13:56:30.655245] 196
[2025-04-13 13:56:30.655245] 196
[2025-04-13 13:56:30.663383] 169
[2025-04-13 13:56:30.663383] 121
[2025-04-13 13:56:30.663383] 100
[2025-04-13 13:56:30.663383] 81
[2025-04-13 13:56:30.663383] 36
[2025-04-13 13:56:30.663383] 0
[2025-04-13 13:56:30.663383] 36
[2025-04-13 13:56:30.672253] 144
[2025-04-13 13:56:30.672253] 225
[2025-04-13 13:56:30.672253] 256
[2025-04-13 13:56:30.672253] 196
[2025-04-13 13:56:30.672253] 49
[2025-04-13 13:56:30.672253] 1
[2025-04-13 13:56:30.672253] 64
[2025-04-13 13:56:30.680524] 169
[2025-04-13 13:56:30.680524] 289
[2025-04-13 13:56:30.680524] 324
[2025-04-13 13:56:30.680524] 256
[2025-04-13 13:56:30.680524] 169
[2025-04-13 13:56:30.680524] 64
[2025-04-13 13:56:30.680524] 16
[2025-04-13 13:56:30.680524] 1
[2025-04-13 13:56:30.689157] 9
[2025-04-13 13:56:30.689157] 64
[2025-04-13 13:56:30.689157] 144
[2025-04-13 13:56:30.689157] 225
[2025-04-13 13:56:30.690156] 196
[2025-04-13 13:56:30.690156] 121
[2025-04-13 13:56:30.690156] 36
[2025-04-13 13:56:30.698154] 1
[2025-04-13 13:56:30.698154] 16
[2025-04-13 13:56:30.698154] 81
[2025-04-13 13:56:30.698154] 169
[2025-04-13 13:56:30.698154] 289
[2025-04-13 13:56:30.698154] 441
[2025-04-13 13:56:30.698154] 361
[2025-04-13 13:56:30.706152] 169
[2025-04-13 13:56:30.706152] 64
[2025-04-13 13:56:30.706152] 4
[2025-04-13 13:56:30.706152] 16
[2025-04-13 13:56:30.706152] 100
[2025-04-13 13:56:30.706152] 256
[2025-04-13 13:56:30.706152] 324
[2025-04-13 13:56:30.714152] 256
[2025-04-13 13:56:30.715155] 121
[2025-04-13 13:56:30.715155] 9
[2025-04-13 13:56:30.715155] 16
[2025-04-13 13:56:30.715155] 121
[2025-04-13 13:56:30.715155] 256
[2025-04-13 13:56:30.716177] 324
[2025-04-13 13:56:30.722692] 256
[2025-04-13 13:56:30.723711] 169
[2025-04-13 13:56:30.723711] 100
[2025-04-13 13:56:30.723711] 64
[2025-04-13 13:56:30.723711] 36
[2025-04-13 13:56:30.723711] 1
[2025-04-13 13:56:30.723711] 16
[2025-04-13 13:56:30.723711] 121
[2025-04-13 13:56:30.732699] 256
[2025-04-13 13:56:30.732699] 289
[2025-04-13 13:56:30.732699] 196
[2025-04-13 13:56:30.732699] 81
[2025-04-13 13:56:30.732699] 4
[2025-04-13 13:56:30.732699] 16
[2025-04-13 13:56:30.732699] 100
[2025-04-13 13:56:30.739697] 169
[2025-04-13 13:56:30.739697] 225
[2025-04-13 13:56:30.739697] 256
[2025-04-13 13:56:30.739697] 196
[2025-04-13 13:56:30.740698] 121
[2025-04-13 13:56:30.740698] 81
[2025-04-13 13:56:30.740698] 36
[2025-04-13 13:56:30.748716] 4
[2025-04-13 13:56:30.748716] 16
[2025-04-13 13:56:30.748716] 100
[2025-04-13 13:56:30.748716] 256
[2025-04-13 13:56:30.748716] 324
[2025-04-13 13:56:30.748716] 225
[2025-04-13 13:56:30.748716] 100
[2025-04-13 13:56:30.756744] 9
[2025-04-13 13:56:30.756744] 16
[2025-04-13 13:56:30.756744] 121
[2025-04-13 13:56:30.756744] 225
[2025-04-13 13:56:30.756744] 289
[2025-04-13 13:56:30.757633] 324
[2025-04-13 13:56:30.757633] 256
[2025-04-13 13:56:30.766214] 169
[2025-04-13 13:56:30.766214] 100
[2025-04-13 13:56:30.766214] 49
[2025-04-13 13:56:30.766214] 0
[2025-04-13 13:56:30.766214] 64
[2025-04-13 13:56:30.766214] 256
[2025-04-13 13:56:30.766214] 361
[2025-04-13 13:56:30.774220] 256
[2025-04-13 13:56:30.774220] 100
[2025-04-13 13:56:30.774220] 9
[2025-04-13 13:56:30.775253] 4
[2025-04-13 13:56:30.775253] 36
[2025-04-13 13:56:30.775253] 81
[2025-04-13 13:56:30.775253] 169
[2025-04-13 13:56:30.784226] 256
[2025-04-13 13:56:30.784226] 256
[2025-04-13 13:56:30.784226] 225
[2025-04-13 13:56:30.784226] 121
[2025-04-13 13:56:30.785241] 49
[2025-04-13 13:56:30.785241] 4
[2025-04-13 13:56:30.785241] 9
[2025-04-13 13:56:30.785241] 81
[2025-04-13 13:56:30.792312] 225
[2025-04-13 13:56:30.792312] 289
[2025-04-13 13:56:30.792312] 225
[2025-04-13 13:56:30.792312] 100
[2025-04-13 13:56:30.792312] 9
[2025-04-13 13:56:30.792312] 4
[2025-04-13 13:56:30.792312] 49
[2025-04-13 13:56:30.800523] 144
[2025-04-13 13:56:30.800523] 225
[2025-04-13 13:56:30.800523] 289
[2025-04-13 13:56:30.800523] 256
[2025-04-13 13:56:30.800523] 169
[2025-04-13 13:56:30.800523] 121
[2025-04-13 13:56:30.800523] 36
[2025-04-13 13:56:30.808523] 0
[2025-04-13 13:56:30.808523] 49
[2025-04-13 13:56:30.809523] 121
[2025-04-13 13:56:30.809523] 196
[2025-04-13 13:56:30.809523] 225
[2025-04-13 13:56:30.809523] 169
[2025-04-13 13:56:30.809523] 49
[2025-04-13 13:56:30.809523] 0
[2025-04-13 13:56:30.817802] 25
[2025-04-13 13:56:30.817802] 81
[2025-04-13 13:56:30.817802] 121
[2025-04-13 13:56:30.817802] 144
[2025-04-13 13:56:30.817802] 196
[2025-04-13 13:56:30.817802] 225
[2025-04-13 13:56:30.826197] 169
[2025-04-13 13:56:30.826197] 121
[2025-04-13 13:56:30.826197] 64
[2025-04-13 13:56:30.826197] 1
[2025-04-13 13:56:30.826197] 25
[2025-04-13 13:56:30.827056] 144
[2025-04-13 13:56:30.827056] 256
[2025-04-13 13:56:30.827056] 289
[2025-04-13 13:56:30.835056] 196
[2025-04-13 13:56:30.835056] 64
[2025-04-13 13:56:30.835056] 1
[2025-04-13 13:56:30.835056] 36
[2025-04-13 13:56:30.835056] 121
[2025-04-13 13:56:30.835056] 196
[2025-04-13 13:56:30.836089] 225
[2025-04-13 13:56:30.843980] 225
[2025-04-13 13:56:30.843980] 196
[2025-04-13 13:56:30.843980] 144
[2025-04-13 13:56:30.843980] 81
[2025-04-13 13:56:30.843980] 25
[2025-04-13 13:56:30.843980] 0
[2025-04-13 13:56:30.843980] 49
[2025-04-13 13:56:30.852017] 121
[2025-04-13 13:56:30.852017] 256
[2025-04-13 13:56:30.852017] 256
[2025-04-13 13:56:30.852017] 169
[2025-04-13 13:56:30.852017] 49
[2025-04-13 13:56:30.852017] 1
[2025-04-13 13:56:30.852017] 16
[2025-04-13 13:56:30.860144] 100
[2025-04-13 13:56:30.860144] 256
[2025-04-13 13:56:30.861004] 400
[2025-04-13 13:56:30.861004] 361
[2025-04-13 13:56:30.861004] 225
[2025-04-13 13:56:30.861004] 121
[2025-04-13 13:56:30.861004] 49
[2025-04-13 13:56:30.869016] 1
[2025-04-13 13:56:30.869016] 16
[2025-04-13 13:56:30.869016] 100
[2025-04-13 13:56:30.869016] 225
[2025-04-13 13:56:30.869016] 289
[2025-04-13 13:56:30.869016] 225
[2025-04-13 13:56:30.869016] 100
[2025-04-13 13:56:30.876870] 9
[2025-04-13 13:56:30.876870] 16
[2025-04-13 13:56:30.876870] 100
[2025-04-13 13:56:30.877878] 169
[2025-04-13 13:56:30.877878] 256
[2025-04-13 13:56:30.877878] 324
[2025-04-13 13:56:30.877878] 289
[2025-04-13 13:56:30.885645] 169
[2025-04-13 13:56:30.885645] 81
[2025-04-13 13:56:30.885645] 16
[2025-04-13 13:56:30.886628] 1
[2025-04-13 13:56:30.886628] 64
[2025-04-13 13:56:30.886628] 144
[2025-04-13 13:56:30.886628] 256
[2025-04-13 13:56:30.893633] 289
[2025-04-13 13:56:30.893633] 196
[2025-04-13 13:56:30.894626] 64
[2025-04-13 13:56:30.894626] 0
[2025-04-13 13:56:30.894626] 49
[2025-04-13 13:56:30.894626] 169
[2025-04-13 13:56:30.894626] 256
[2025-04-13 13:56:30.894626] 256
[2025-04-13 13:56:30.902846] 225
[2025-04-13 13:56:30.902846] 225
[2025-04-13 13:56:30.902846] 196
[2025-04-13 13:56:30.902846] 144
[2025-04-13 13:56:30.902846] 36
[2025-04-13 13:56:30.902846] 9
[2025-04-13 13:56:30.902846] 121
[2025-04-13 13:56:30.912143] 225
[2025-04-13 13:56:30.912143] 324
[2025-04-13 13:56:30.912143] 289
[2025-04-13 13:56:30.912143] 144
[2025-04-13 13:56:30.912143] 36
[2025-04-13 13:56:30.912143] 0
[2025-04-13 13:56:30.912143] 25
[2025-04-13 13:56:30.919289] 100
[2025-04-13 13:56:30.919289] 196
[2025-04-13 13:56:30.919289] 256
[2025-04-13 13:56:30.919289] 361
[2025-04-13 13:56:30.919289] 324
[2025-04-13 13:56:30.919289] 225
[2025-04-13 13:56:30.927289] 121
[2025-04-13 13:56:30.927289] 9
[2025-04-13 13:56:30.928148] 25
[2025-04-13 13:56:30.928148] 144
[2025-04-13 13:56:30.928148] 289
[2025-04-13 13:56:30.928148] 361
[2025-04-13 13:56:30.928148] 196
[2025-04-13 13:56:30.936474] 64
[2025-04-13 13:56:30.936474] 4
[2025-04-13 13:56:30.936474] 9
[2025-04-13 13:56:30.936474] 81
[2025-04-13 13:56:30.937466] 121
[2025-04-13 13:56:30.937466] 169
[2025-04-13 13:56:30.937466] 225
[2025-04-13 13:56:30.937466] 196
[2025-04-13 13:56:30.945656] 196
[2025-04-13 13:56:30.945656] 144
[2025-04-13 13:56:30.945656] 64
[2025-04-13 13:56:30.945656] 1
[2025-04-13 13:56:30.945656] 25
[2025-04-13 13:56:30.945656] 121
[2025-04-13 13:56:30.945656] 196
[2025-04-13 13:56:30.953806] 225
[2025-04-13 13:56:30.953806] 196
[2025-04-13 13:56:30.953806] 81
[2025-04-13 13:56:30.953806] 1
[2025-04-13 13:56:30.953806] 16
[2025-04-13 13:56:30.953806] 81
[2025-04-13 13:56:30.954696] 169
[2025-04-13 13:56:30.962808] 225
[2025-04-13 13:56:30.963664] 256
[2025-04-13 13:56:30.963664] 169
[2025-04-13 13:56:30.963664] 121
[2025-04-13 13:56:30.963664] 81
[2025-04-13 13:56:30.963664] 25
[2025-04-13 13:56:30.963664] 0
[2025-04-13 13:56:30.963664] 36
[2025-04-13 13:56:30.971681] 121
[2025-04-13 13:56:30.971681] 196
[2025-04-13 13:56:30.971681] 225
[2025-04-13 13:56:30.971681] 144
[2025-04-13 13:56:30.971681] 49
[2025-04-13 13:56:30.971681] 0
[2025-04-13 13:56:30.971681] 36
[2025-04-13 13:56:30.979042] 121
[2025-04-13 13:56:30.979042] 196
[2025-04-13 13:56:30.979042] 225
[2025-04-13 13:56:30.979042] 196
[2025-04-13 13:56:30.979042] 169
[2025-04-13 13:56:30.979042] 144
[2025-04-13 13:56:30.986976] 100
[2025-04-13 13:56:30.987977] 16
[2025-04-13 13:56:30.987977] 4
[2025-04-13 13:56:30.987977] 64
[2025-04-13 13:56:30.987977] 196
[2025-04-13 13:56:30.987977] 324
[2025-04-13 13:56:30.987977] 289
[2025-04-13 13:56:30.987977] 100
[2025-04-13 13:56:30.996685] 4
[2025-04-13 13:56:30.996685] 16
[2025-04-13 13:56:30.996685] 64
[2025-04-13 13:56:30.996685] 121
[2025-04-13 13:56:30.996685] 169
[2025-04-13 13:56:30.996685] 225
[2025-04-13 13:56:30.997540] 256
[2025-04-13 13:56:31.005540] 225
[2025-04-13 13:56:31.005540] 144
[2025-04-13 13:56:31.005540] 64
[2025-04-13 13:56:31.005540] 4
[2025-04-13 13:56:31.005540] 16
[2025-04-13 13:56:31.005540] 144
[2025-04-13 13:56:31.005540] 289
[2025-04-13 13:56:31.013781] 400
[2025-04-13 13:56:31.013781] 289
[2025-04-13 13:56:31.013781] 64
[2025-04-13 13:56:31.013781] 4
[2025-04-13 13:56:31.013781] 81
[2025-04-13 13:56:31.014819] 169
[2025-04-13 13:56:31.014819] 196
[2025-04-13 13:56:31.023222] 225
[2025-04-13 13:56:31.023222] 225
[2025-04-13 13:56:31.023222] 196
[2025-04-13 13:56:31.023222] 121
[2025-04-13 13:56:31.023222] 64
[2025-04-13 13:56:31.023222] 9
[2025-04-13 13:56:31.023222] 4
[2025-04-13 13:56:31.023222] 49
[2025-04-13 13:56:31.031122] 144
[2025-04-13 13:56:31.031122] 225
[2025-04-13 13:56:31.031122] 256
[2025-04-13 13:56:31.031122] 196
[2025-04-13 13:56:31.031122] 49
[2025-04-13 13:56:31.031122] 0
[2025-04-13 13:56:31.031122] 36
[2025-04-13 13:56:31.039084] 121
[2025-04-13 13:56:31.039084] 196
[2025-04-13 13:56:31.039084] 256
[2025-04-13 13:56:31.039084] 289
[2025-04-13 13:56:31.039084] 256
[2025-04-13 13:56:31.039084] 169
[2025-04-13 13:56:31.039084] 81
[2025-04-13 13:56:31.048326] 16
[2025-04-13 13:56:31.048326] 4
[2025-04-13 13:56:31.048326] 64
[2025-04-13 13:56:31.048326] 169
[2025-04-13 13:56:31.048326] 256
[2025-04-13 13:56:31.048326] 256
[2025-04-13 13:56:31.048326] 144
[2025-04-13 13:56:31.056844] 36
[2025-04-13 13:56:31.056844] 0
[2025-04-13 13:56:31.056844] 49
[2025-04-13 13:56:31.056844] 121
[2025-04-13 13:56:31.056844] 169
[2025-04-13 13:56:31.056844] 196
[2025-04-13 13:56:31.056844] 225
[2025-04-13 13:56:31.064790] 169
[2025-04-13 13:56:31.064790] 121
[2025-04-13 13:56:31.065792] 81
[2025-04-13 13:56:31.065792] 25
[2025-04-13 13:56:31.065792] 0
[2025-04-13 13:56:31.065792] 36
[2025-04-13 13:56:31.065792] 144
[2025-04-13 13:56:31.073738] 289
[2025-04-13 13:56:31.073738] 289
[2025-04-13 13:56:31.073738] 144
[2025-04-13 13:56:31.073738] 36
[2025-04-13 13:56:31.073738] 4
[2025-04-13 13:56:31.073738] 81
[2025-04-13 13:56:31.073738] 169
[2025-04-13 13:56:31.073738] 256
[2025-04-13 13:56:31.082887] 256
[2025-04-13 13:56:31.082887] 225
[2025-04-13 13:56:31.082887] 121
[2025-04-13 13:56:31.082887] 81
[2025-04-13 13:56:31.082887] 64
[2025-04-13 13:56:31.082887] 9
[2025-04-13 13:56:31.082887] 4
[2025-04-13 13:56:31.090751] 81
[2025-04-13 13:56:31.090751] 225
[2025-04-13 13:56:31.090751] 289
[2025-04-13 13:56:31.091744] 256
[2025-04-13 13:56:31.091744] 121
[2025-04-13 13:56:31.091744] 16
[2025-04-13 13:56:31.091744] 1
[2025-04-13 13:56:31.091744] 64
[2025-04-13 13:56:31.099782] 169
[2025-04-13 13:56:31.099782] 256
[2025-04-13 13:56:31.099782] 361
[2025-04-13 13:56:31.099782] 361
[2025-04-13 13:56:31.099782] 289
[2025-04-13 13:56:31.099782] 169
[2025-04-13 13:56:31.107929] 64
[2025-04-13 13:56:31.107929] 0
[2025-04-13 13:56:31.107929] 64
[2025-04-13 13:56:31.107929] 225
[2025-04-13 13:56:31.107929] 361
[2025-04-13 13:56:31.107929] 361
[2025-04-13 13:56:31.107929] 256
[2025-04-13 13:56:31.116597] 121
[2025-04-13 13:56:31.116597] 9
[2025-04-13 13:56:31.116597] 25
[2025-04-13 13:56:31.116597] 225
[2025-04-13 13:56:31.116597] 400
[2025-04-13 13:56:31.116597] 441
[2025-04-13 13:56:31.116597] 361
[2025-04-13 13:56:31.124784] 225
[2025-04-13 13:56:31.124784] 100
[2025-04-13 13:56:31.124784] 64
[2025-04-13 13:56:31.124784] 25
[2025-04-13 13:56:31.124784] 0
[2025-04-13 13:56:31.124784] 49
[2025-04-13 13:56:31.124784] 169
[2025-04-13 13:56:31.124784] 289
[2025-04-13 13:56:31.134098] 324
[2025-04-13 13:56:31.134098] 196
[2025-04-13 13:56:31.134098] 49
[2025-04-13 13:56:31.134098] 0
[2025-04-13 13:56:31.134098] 49
[2025-04-13 13:56:31.134098] 144
[2025-04-13 13:56:31.134098] 196
[2025-04-13 13:56:31.142061] 256
[2025-04-13 13:56:31.142061] 225
[2025-04-13 13:56:31.143094] 196
[2025-04-13 13:56:31.143094] 100
[2025-04-13 13:56:31.143094] 49
[2025-04-13 13:56:31.143094] 4
[2025-04-13 13:56:31.143094] 16
[2025-04-13 13:56:31.151212] 81
[2025-04-13 13:56:31.152219] 169
[2025-04-13 13:56:31.152219] 225
[2025-04-13 13:56:31.152219] 169
[2025-04-13 13:56:31.152219] 64
[2025-04-13 13:56:31.152219] 9
[2025-04-13 13:56:31.153219] 4
[2025-04-13 13:56:31.153219] 49
[2025-04-13 13:56:31.159288] 144
[2025-04-13 13:56:31.159288] 196
[2025-04-13 13:56:31.159288] 256
[2025-04-13 13:56:31.159288] 256
[2025-04-13 13:56:31.159288] 169
[2025-04-13 13:56:31.160338] 121
[2025-04-13 13:56:31.168300] 64
[2025-04-13 13:56:31.168300] 4
[2025-04-13 13:56:31.168300] 25
[2025-04-13 13:56:31.168300] 100
[2025-04-13 13:56:31.168300] 169
[2025-04-13 13:56:31.169288] 144
[2025-04-13 13:56:31.169288] 81
[2025-04-13 13:56:31.169288] 16
[2025-04-13 13:56:31.176504] 0
[2025-04-13 13:56:31.177511] 1
[2025-04-13 13:56:31.177511] 9
[2025-04-13 13:56:31.177511] 49
[2025-04-13 13:56:31.177511] 100
[2025-04-13 13:56:31.177511] 144
[2025-04-13 13:56:31.177511] 169
[2025-04-13 13:56:31.177511] 169
[2025-04-13 13:56:31.186088] 121
[2025-04-13 13:56:31.186088] 36
[2025-04-13 13:56:31.186969] 0
[2025-04-13 13:56:31.186969] 9
[2025-04-13 13:56:31.186969] 49
[2025-04-13 13:56:31.186969] 121
[2025-04-13 13:56:31.186969] 225
[2025-04-13 13:56:31.195103] 256
[2025-04-13 13:56:31.195103] 169
[2025-04-13 13:56:31.195103] 16
[2025-04-13 13:56:31.195103] 25
[2025-04-13 13:56:31.195940] 169
[2025-04-13 13:56:31.195940] 289
[2025-04-13 13:56:31.195940] 289
[2025-04-13 13:56:31.203611] 256
[2025-04-13 13:56:31.203611] 196
[2025-04-13 13:56:31.203611] 121
[2025-04-13 13:56:31.203611] 81
[2025-04-13 13:56:31.203611] 25
[2025-04-13 13:56:31.203611] 0
[2025-04-13 13:56:31.203611] 36
[2025-04-13 13:56:31.212580] 169
[2025-04-13 13:56:31.212580] 256
[2025-04-13 13:56:31.212580] 324
[2025-04-13 13:56:31.212580] 196
[2025-04-13 13:56:31.212580] 64
[2025-04-13 13:56:31.212580] 1
[2025-04-13 13:56:31.212580] 25
[2025-04-13 13:56:31.212580] 81
[2025-04-13 13:56:31.220391] 169
[2025-04-13 13:56:31.220391] 256
[2025-04-13 13:56:31.220391] 324
[2025-04-13 13:56:31.220391] 289
[2025-04-13 13:56:31.220391] 225
[2025-04-13 13:56:31.220391] 169
[2025-04-13 13:56:31.228141] 49
[2025-04-13 13:56:31.228141] 1
[2025-04-13 13:56:31.228141] 81
[2025-04-13 13:56:31.228141] 225
[2025-04-13 13:56:31.229031] 361
[2025-04-13 13:56:31.229031] 324
[2025-04-13 13:56:31.229031] 169
[2025-04-13 13:56:31.229031] 36
[2025-04-13 13:56:31.237131] 0
[2025-04-13 13:56:31.237131] 36
[2025-04-13 13:56:31.237131] 100
[2025-04-13 13:56:31.237131] 169
[2025-04-13 13:56:31.237131] 225
[2025-04-13 13:56:31.237998] 289
[2025-04-13 13:56:31.237998] 225
[2025-04-13 13:56:31.246252] 144
[2025-04-13 13:56:31.246252] 81
[2025-04-13 13:56:31.246252] 16
[2025-04-13 13:56:31.246252] 4
[2025-04-13 13:56:31.246252] 64
[2025-04-13 13:56:31.247267] 169
[2025-04-13 13:56:31.247267] 225
[2025-04-13 13:56:31.254300] 196
[2025-04-13 13:56:31.254300] 100
[2025-04-13 13:56:31.255282] 25
[2025-04-13 13:56:31.255282] 0
[2025-04-13 13:56:31.255282] 36
[2025-04-13 13:56:31.255282] 144
[2025-04-13 13:56:31.255282] 225
[2025-04-13 13:56:31.263288] 225
[2025-04-13 13:56:31.264280] 225
[2025-04-13 13:56:31.264280] 169
[2025-04-13 13:56:31.264280] 144
[2025-04-13 13:56:31.264280] 64
[2025-04-13 13:56:31.264280] 9
[2025-04-13 13:56:31.264280] 4
[2025-04-13 13:56:31.264280] 64
[2025-04-13 13:56:31.272280] 196
[2025-04-13 13:56:31.272280] 289
[2025-04-13 13:56:31.272280] 256
[2025-04-13 13:56:31.272280] 121
[2025-04-13 13:56:31.272280] 9
[2025-04-13 13:56:31.273283] 4
[2025-04-13 13:56:31.273283] 64
[2025-04-13 13:56:31.280430] 144
[2025-04-13 13:56:31.280430] 196
[2025-04-13 13:56:31.280430] 256
[2025-04-13 13:56:31.280430] 256
[2025-04-13 13:56:31.280430] 225
[2025-04-13 13:56:31.281437] 144
[2025-04-13 13:56:31.281437] 64
[2025-04-13 13:56:31.289321] 1
[2025-04-13 13:56:31.289321] 36
[2025-04-13 13:56:31.289321] 196
[2025-04-13 13:56:31.289321] 324
[2025-04-13 13:56:31.289321] 324
[2025-04-13 13:56:31.289321] 196
[2025-04-13 13:56:31.289321] 64
[2025-04-13 13:56:31.297374] 1
[2025-04-13 13:56:31.297374] 36
[2025-04-13 13:56:31.297374] 100
[2025-04-13 13:56:31.297374] 196
[2025-04-13 13:56:31.298266] 256
[2025-04-13 13:56:31.298266] 256
[2025-04-13 13:56:31.298266] 196
[2025-04-13 13:56:31.305669] 169
[2025-04-13 13:56:31.306685] 169
[2025-04-13 13:56:31.306685] 121
[2025-04-13 13:56:31.306685] 4
[2025-04-13 13:56:31.306685] 36
[2025-04-13 13:56:31.306685] 225
[2025-04-13 13:56:31.306685] 324
[2025-04-13 13:56:31.313808] 324
[2025-04-13 13:56:31.314666] 196
[2025-04-13 13:56:31.314666] 64
[2025-04-13 13:56:31.314666] 1
[2025-04-13 13:56:31.314666] 25
[2025-04-13 13:56:31.314666] 100
[2025-04-13 13:56:31.314666] 169
[2025-04-13 13:56:31.322493] 256
[2025-04-13 13:56:31.322493] 289
[2025-04-13 13:56:31.322493] 225
[2025-04-13 13:56:31.322493] 144
[2025-04-13 13:56:31.322493] 64
[2025-04-13 13:56:31.322493] 4
[2025-04-13 13:56:31.323532] 16
[2025-04-13 13:56:31.323532] 81
[2025-04-13 13:56:31.332516] 169
[2025-04-13 13:56:31.332516] 225
[2025-04-13 13:56:31.332516] 169
[2025-04-13 13:56:31.332516] 64
[2025-04-13 13:56:31.332516] 9
[2025-04-13 13:56:31.332516] 4
[2025-04-13 13:56:31.332516] 49
[2025-04-13 13:56:31.340634] 100
[2025-04-13 13:56:31.340634] 169
[2025-04-13 13:56:31.340634] 196
[2025-04-13 13:56:31.340634] 196
[2025-04-13 13:56:31.340634] 121
[2025-04-13 13:56:31.340634] 100
[2025-04-13 13:56:31.341579] 64
[2025-04-13 13:56:31.348264] 16
[2025-04-13 13:56:31.349257] 1
[2025-04-13 13:56:31.349257] 49
[2025-04-13 13:56:31.349257] 144
[2025-04-13 13:56:31.349257] 256
[2025-04-13 13:56:31.349257] 225
[2025-04-13 13:56:31.349257] 144
[2025-04-13 13:56:31.357257] 25
[2025-04-13 13:56:31.357257] 4
[2025-04-13 13:56:31.357257] 81
[2025-04-13 13:56:31.357257] 144
[2025-04-13 13:56:31.357257] 225
[2025-04-13 13:56:31.357257] 225
[2025-04-13 13:56:31.357257] 196
[2025-04-13 13:56:31.365858] 169
[2025-04-13 13:56:31.365858] 121
[2025-04-13 13:56:31.365858] 64
[2025-04-13 13:56:31.365858] 4
[2025-04-13 13:56:31.365858] 16
[2025-04-13 13:56:31.365858] 121
[2025-04-13 13:56:31.365858] 256
[2025-04-13 13:56:31.373857] 289
[2025-04-13 13:56:31.373857] 225
[2025-04-13 13:56:31.374713] 81
[2025-04-13 13:56:31.374713] 1
[2025-04-13 13:56:31.374713] 25
[2025-04-13 13:56:31.374713] 100
[2025-04-13 13:56:31.374713] 169
[2025-04-13 13:56:31.374713] 225
[2025-04-13 13:56:31.383007] 289
[2025-04-13 13:56:31.384016] 225
[2025-04-13 13:56:31.384016] 121
[2025-04-13 13:56:31.384016] 64
[2025-04-13 13:56:31.384016] 16
[2025-04-13 13:56:31.384016] 1
[2025-04-13 13:56:31.384016] 36
[2025-04-13 13:56:31.391935] 144
[2025-04-13 13:56:31.391935] 289
[2025-04-13 13:56:31.391935] 289
[2025-04-13 13:56:31.391935] 196
[2025-04-13 13:56:31.391935] 36
[2025-04-13 13:56:31.391935] 1
[2025-04-13 13:56:31.391935] 81
[2025-04-13 13:56:31.400140] 169
[2025-04-13 13:56:31.400140] 196
[2025-04-13 13:56:31.400140] 144
[2025-04-13 13:56:31.400140] 144
[2025-04-13 13:56:31.400140] 169
[2025-04-13 13:56:31.401146] 196
[2025-04-13 13:56:31.401146] 169
[2025-04-13 13:56:31.408153] 81
[2025-04-13 13:56:31.408153] 0
[2025-04-13 13:56:31.408153] 49
[2025-04-13 13:56:31.408153] 225
[2025-04-13 13:56:31.409145] 361
[2025-04-13 13:56:31.409145] 289
[2025-04-13 13:56:31.409145] 169
[2025-04-13 13:56:31.417152] 25
[2025-04-13 13:56:31.417152] 1
[2025-04-13 13:56:31.417152] 64
[2025-04-13 13:56:31.417152] 144
[2025-04-13 13:56:31.417152] 196
[2025-04-13 13:56:31.417152] 225
[2025-04-13 13:56:31.417152] 256
[2025-04-13 13:56:31.424917] 169
[2025-04-13 13:56:31.425864] 121
[2025-04-13 13:56:31.425864] 49
[2025-04-13 13:56:31.425864] 1
[2025-04-13 13:56:31.425864] 16
[2025-04-13 13:56:31.425864] 121
[2025-04-13 13:56:31.425864] 256
[2025-04-13 13:56:31.433870] 361
[2025-04-13 13:56:31.433870] 289
[2025-04-13 13:56:31.433870] 81
[2025-04-13 13:56:31.434866] 0
[2025-04-13 13:56:31.434866] 49
[2025-04-13 13:56:31.434866] 100
[2025-04-13 13:56:31.434866] 144
[2025-04-13 13:56:31.442058] 196
[2025-04-13 13:56:31.442058] 289
[2025-04-13 13:56:31.442058] 289
[2025-04-13 13:56:31.442058] 225
[2025-04-13 13:56:31.442058] 144
[2025-04-13 13:56:31.442058] 49
[2025-04-13 13:56:31.442058] 1
[2025-04-13 13:56:31.443049] 25
[2025-04-13 13:56:31.451059] 144
[2025-04-13 13:56:31.451059] 289
[2025-04-13 13:56:31.451059] 400
[2025-04-13 13:56:31.451059] 289
[2025-04-13 13:56:31.451059] 121
[2025-04-13 13:56:31.451059] 4
[2025-04-13 13:56:31.451059] 36
[2025-04-13 13:56:31.459320] 121
[2025-04-13 13:56:31.459320] 225
[2025-04-13 13:56:31.459320] 289
[2025-04-13 13:56:31.459320] 324
[2025-04-13 13:56:31.459320] 289
[2025-04-13 13:56:31.459320] 196
[2025-04-13 13:56:31.467826] 81
[2025-04-13 13:56:31.467826] 9
[2025-04-13 13:56:31.467826] 9
[2025-04-13 13:56:31.467826] 81
[2025-04-13 13:56:31.467826] 225
[2025-04-13 13:56:31.467826] 324
[2025-04-13 13:56:31.467826] 225
[2025-04-13 13:56:31.467826] 100
[2025-04-13 13:56:31.476817] 9
[2025-04-13 13:56:31.476817] 4
[2025-04-13 13:56:31.476817] 64
[2025-04-13 13:56:31.476817] 144
[2025-04-13 13:56:31.476817] 196
[2025-04-13 13:56:31.476817] 225
[2025-04-13 13:56:31.477709] 225
[2025-04-13 13:56:31.485554] 169
[2025-04-13 13:56:31.485554] 100
[2025-04-13 13:56:31.485554] 36
[2025-04-13 13:56:31.485554] 1
[2025-04-13 13:56:31.485554] 16
[2025-04-13 13:56:31.485554] 100
[2025-04-13 13:56:31.485554] 196
[2025-04-13 13:56:31.494285] 289
[2025-04-13 13:56:31.495142] 225
[2025-04-13 13:56:31.495142] 81
[2025-04-13 13:56:31.495142] 9
[2025-04-13 13:56:31.495142] 9
[2025-04-13 13:56:31.495142] 81
[2025-04-13 13:56:31.495142] 144
[2025-04-13 13:56:31.495142] 196
[2025-04-13 13:56:31.503140] 289
[2025-04-13 13:56:31.503140] 289
[2025-04-13 13:56:31.503140] 225
[2025-04-13 13:56:31.503140] 121
[2025-04-13 13:56:31.503140] 36
[2025-04-13 13:56:31.503140] 0
[2025-04-13 13:56:31.503140] 25
[2025-04-13 13:56:31.511634] 121
[2025-04-13 13:56:31.511634] 225
[2025-04-13 13:56:31.511634] 289
[2025-04-13 13:56:31.511634] 225
[2025-04-13 13:56:31.511634] 100
[2025-04-13 13:56:31.511634] 9
[2025-04-13 13:56:31.511634] 16
[2025-04-13 13:56:31.518728] 81
[2025-04-13 13:56:31.518728] 144
[2025-04-13 13:56:31.518728] 256
[2025-04-13 13:56:31.519589] 256
[2025-04-13 13:56:31.519589] 256
[2025-04-13 13:56:31.519589] 225
[2025-04-13 13:56:31.519589] 196
[2025-04-13 13:56:31.527590] 100
[2025-04-13 13:56:31.527590] 4
[2025-04-13 13:56:31.527590] 49
[2025-04-13 13:56:31.527590] 225
[2025-04-13 13:56:31.527590] 361
[2025-04-13 13:56:31.527590] 324
[2025-04-13 13:56:31.528587] 196
[2025-04-13 13:56:31.536830] 49
[2025-04-13 13:56:31.536830] 0
[2025-04-13 13:56:31.536830] 36
[2025-04-13 13:56:31.536830] 121
[2025-04-13 13:56:31.536830] 225
[2025-04-13 13:56:31.536830] 256
[2025-04-13 13:56:31.536830] 324
[2025-04-13 13:56:31.544965] 225
[2025-04-13 13:56:31.544965] 144
[2025-04-13 13:56:31.544965] 81
[2025-04-13 13:56:31.544965] 16
[2025-04-13 13:56:31.544965] 1
[2025-04-13 13:56:31.544965] 81
[2025-04-13 13:56:31.544965] 225
[2025-04-13 13:56:31.553092] 324
[2025-04-13 13:56:31.553092] 324
[2025-04-13 13:56:31.553963] 169
[2025-04-13 13:56:31.553963] 36
[2025-04-13 13:56:31.553963] 1
[2025-04-13 13:56:31.553963] 64
[2025-04-13 13:56:31.553963] 169
[2025-04-13 13:56:31.562241] 225
[2025-04-13 13:56:31.562241] 289
[2025-04-13 13:56:31.562241] 256
[2025-04-13 13:56:31.562241] 196
[2025-04-13 13:56:31.562241] 144
[2025-04-13 13:56:31.562241] 64
[2025-04-13 13:56:31.562241] 1
[2025-04-13 13:56:31.562241] 25
[2025-04-13 13:56:31.570629] 144
[2025-04-13 13:56:31.571649] 256
[2025-04-13 13:56:31.571649] 324
[2025-04-13 13:56:31.571649] 225
[2025-04-13 13:56:31.571649] 64
[2025-04-13 13:56:31.571649] 0
[2025-04-13 13:56:31.571649] 36
[2025-04-13 13:56:31.578635] 144
[2025-04-13 13:56:31.578635] 225
[2025-04-13 13:56:31.578635] 256
[2025-04-13 13:56:31.578635] 225
[2025-04-13 13:56:31.579627] 169
[2025-04-13 13:56:31.579627] 121
[2025-04-13 13:56:31.586669] 81
[2025-04-13 13:56:31.586669] 49
[2025-04-13 13:56:31.587669] 4
[2025-04-13 13:56:31.587669] 16
[2025-04-13 13:56:31.587669] 100
[2025-04-13 13:56:31.587669] 225
[2025-04-13 13:56:31.587669] 289
[2025-04-13 13:56:31.587669] 196
[2025-04-13 13:56:31.596655] 81
[2025-04-13 13:56:31.596655] 4
[2025-04-13 13:56:31.596655] 25
[2025-04-13 13:56:31.596655] 100
[2025-04-13 13:56:31.596655] 169
[2025-04-13 13:56:31.596655] 196
[2025-04-13 13:56:31.596655] 169
[2025-04-13 13:56:31.605669] 121
[2025-04-13 13:56:31.605669] 81
[2025-04-13 13:56:31.605669] 81
[2025-04-13 13:56:31.605669] 36
[2025-04-13 13:56:31.605669] 1
[2025-04-13 13:56:31.605669] 4
[2025-04-13 13:56:31.605669] 36
[2025-04-13 13:56:31.605669] 100
[2025-04-13 13:56:31.614028] 121
[2025-04-13 13:56:31.614028] 121
[2025-04-13 13:56:31.614028] 100
[2025-04-13 13:56:31.614028] 25
[2025-04-13 13:56:31.614028] 1
[2025-04-13 13:56:31.615071] 49
[2025-04-13 13:56:31.615071] 121
[2025-04-13 13:56:31.623036] 225
[2025-04-13 13:56:31.623036] 256
[2025-04-13 13:56:31.623036] 256
[2025-04-13 13:56:31.623036] 169
[2025-04-13 13:56:31.623036] 100
[2025-04-13 13:56:31.623036] 36
[2025-04-13 13:56:31.624038] 0
[2025-04-13 13:56:31.631164] 49
[2025-04-13 13:56:31.631164] 169
[2025-04-13 13:56:31.631164] 289
[2025-04-13 13:56:31.631164] 256
[2025-04-13 13:56:31.631164] 121
[2025-04-13 13:56:31.631164] 25
[2025-04-13 13:56:31.631164] 1
[2025-04-13 13:56:31.639169] 49
[2025-04-13 13:56:31.639169] 121
[2025-04-13 13:56:31.639169] 169
[2025-04-13 13:56:31.639169] 225
[2025-04-13 13:56:31.639169] 256
[2025-04-13 13:56:31.639169] 225
[2025-04-13 13:56:31.639169] 169
[2025-04-13 13:56:31.647471] 81
[2025-04-13 13:56:31.647471] 4
[2025-04-13 13:56:31.648495] 16
[2025-04-13 13:56:31.648495] 121
[2025-04-13 13:56:31.648495] 225
[2025-04-13 13:56:31.648495] 289
[2025-04-13 13:56:31.648495] 225
[2025-04-13 13:56:31.656058] 100
[2025-04-13 13:56:31.656058] 16
[2025-04-13 13:56:31.656058] 4
[2025-04-13 13:56:31.656058] 64
[2025-04-13 13:56:31.656058] 144
[2025-04-13 13:56:31.656058] 225
[2025-04-13 13:56:31.656058] 256
[2025-04-13 13:56:31.665059] 225
[2025-04-13 13:56:31.665059] 225
[2025-04-13 13:56:31.665059] 144
[2025-04-13 13:56:31.665059] 64
[2025-04-13 13:56:31.665059] 4
[2025-04-13 13:56:31.665059] 16
[2025-04-13 13:56:31.665059] 100
[2025-04-13 13:56:31.674244] 256
[2025-04-13 13:56:31.674244] 361
[2025-04-13 13:56:31.674244] 256
[2025-04-13 13:56:31.674244] 100
[2025-04-13 13:56:31.674244] 9
[2025-04-13 13:56:31.674244] 9
[2025-04-13 13:56:31.674244] 64
[2025-04-13 13:56:31.674244] 169
[2025-04-13 13:56:31.682067] 289
[2025-04-13 13:56:31.682067] 324
[2025-04-13 13:56:31.682067] 256
[2025-04-13 13:56:31.682963] 196
[2025-04-13 13:56:31.682963] 81
[2025-04-13 13:56:31.682963] 25
[2025-04-13 13:56:31.682963] 0
[2025-04-13 13:56:31.690932] 25
[2025-04-13 13:56:31.690932] 121
[2025-04-13 13:56:31.690932] 225
[2025-04-13 13:56:31.690932] 324
[2025-04-13 13:56:31.690932] 196
[2025-04-13 13:56:31.690932] 64
[2025-04-13 13:56:31.690932] 1
[2025-04-13 13:56:31.699329] 16
[2025-04-13 13:56:31.699329] 100
[2025-04-13 13:56:31.699329] 225
[2025-04-13 13:56:31.699329] 361
[2025-04-13 13:56:31.699329] 289
[2025-04-13 13:56:31.699329] 196
[2025-04-13 13:56:31.699329] 144
[2025-04-13 13:56:31.707744] 100
[2025-04-13 13:56:31.707744] 16
[2025-04-13 13:56:31.707744] 9
[2025-04-13 13:56:31.707744] 121
[2025-04-13 13:56:31.707744] 256
[2025-04-13 13:56:31.707744] 289
[2025-04-13 13:56:31.707744] 225
[2025-04-13 13:56:31.715662] 100
[2025-04-13 13:56:31.715662] 9
[2025-04-13 13:56:31.715662] 16
[2025-04-13 13:56:31.716662] 121
[2025-04-13 13:56:31.716662] 196
[2025-04-13 13:56:31.716662] 256
[2025-04-13 13:56:31.716662] 256
[2025-04-13 13:56:31.724813] 169
[2025-04-13 13:56:31.724813] 100
[2025-04-13 13:56:31.724813] 49
[2025-04-13 13:56:31.724813] 16
[2025-04-13 13:56:31.724813] 0
[2025-04-13 13:56:31.724813] 9
[2025-04-13 13:56:31.725863] 49
[2025-04-13 13:56:31.725863] 144
[2025-04-13 13:56:31.733819] 196
[2025-04-13 13:56:31.733819] 196
[2025-04-13 13:56:31.733819] 100
[2025-04-13 13:56:31.733819] 16
[2025-04-13 13:56:31.733819] 1
[2025-04-13 13:56:31.733819] 64
[2025-04-13 13:56:31.733819] 169
[2025-04-13 13:56:31.742188] 256
[2025-04-13 13:56:31.742188] 324
[2025-04-13 13:56:31.742188] 256
[2025-04-13 13:56:31.743004] 169
[2025-04-13 13:56:31.743004] 121
[2025-04-13 13:56:31.743004] 49
[2025-04-13 13:56:31.743004] 4
[2025-04-13 13:56:31.750199] 16
[2025-04-13 13:56:31.750199] 121
[2025-04-13 13:56:31.750199] 256
[2025-04-13 13:56:31.750199] 324
[2025-04-13 13:56:31.750199] 225
[2025-04-13 13:56:31.750199] 100
[2025-04-13 13:56:31.751180] 9
[2025-04-13 13:56:31.758287] 9
[2025-04-13 13:56:31.758287] 100
[2025-04-13 13:56:31.758287] 225
[2025-04-13 13:56:31.758287] 289
[2025-04-13 13:56:31.758287] 324
[2025-04-13 13:56:31.758287] 256
[2025-04-13 13:56:31.758287] 144
[2025-04-13 13:56:31.767631] 81
[2025-04-13 13:56:31.767631] 9
[2025-04-13 13:56:31.767631] 4
[2025-04-13 13:56:31.767631] 64
[2025-04-13 13:56:31.767631] 144
[2025-04-13 13:56:31.767631] 225
[2025-04-13 13:56:31.767631] 196
[2025-04-13 13:56:31.776774] 81
[2025-04-13 13:56:31.776774] 16
[2025-04-13 13:56:31.776774] 0
[2025-04-13 13:56:31.776774] 16
[2025-04-13 13:56:31.776774] 49
[2025-04-13 13:56:31.776774] 121
[2025-04-13 13:56:31.776774] 225
[2025-04-13 13:56:31.776774] 225
[2025-04-13 13:56:31.785508] 196
[2025-04-13 13:56:31.785508] 144
[2025-04-13 13:56:31.785508] 81
[2025-04-13 13:56:31.785508] 9
[2025-04-13 13:56:31.785508] 4
[2025-04-13 13:56:31.785508] 64
[2025-04-13 13:56:31.785508] 121
[2025-04-13 13:56:31.793711] 144
[2025-04-13 13:56:31.793711] 169
[2025-04-13 13:56:31.793711] 121
[2025-04-13 13:56:31.793711] 36
[2025-04-13 13:56:31.793711] 1
[2025-04-13 13:56:31.793711] 49
[2025-04-13 13:56:31.793711] 121
[2025-04-13 13:56:31.793711] 196
[2025-04-13 13:56:31.803254] 196
[2025-04-13 13:56:31.803254] 225
[2025-04-13 13:56:31.803254] 196
[2025-04-13 13:56:31.803254] 144
[2025-04-13 13:56:31.803254] 64
[2025-04-13 13:56:31.803254] 1
[2025-04-13 13:56:31.803254] 25
[2025-04-13 13:56:31.811015] 144
[2025-04-13 13:56:31.811015] 225
[2025-04-13 13:56:31.811015] 225
[2025-04-13 13:56:31.812009] 169
[2025-04-13 13:56:31.812009] 64
[2025-04-13 13:56:31.812009] 9
[2025-04-13 13:56:31.812009] 9
[2025-04-13 13:56:31.819382] 49
[2025-04-13 13:56:31.819382] 100
[2025-04-13 13:56:31.819382] 196
[2025-04-13 13:56:31.819382] 324
[2025-04-13 13:56:31.820270] 324
[2025-04-13 13:56:31.820270] 225
[2025-04-13 13:56:31.820270] 121
[2025-04-13 13:56:31.828241] 36
[2025-04-13 13:56:31.828241] 0
[2025-04-13 13:56:31.828241] 36
[2025-04-13 13:56:31.828241] 121
[2025-04-13 13:56:31.828241] 256
[2025-04-13 13:56:31.828241] 289
[2025-04-13 13:56:31.828241] 169
[2025-04-13 13:56:31.836530] 64
[2025-04-13 13:56:31.836530] 4
[2025-04-13 13:56:31.836530] 16
[2025-04-13 13:56:31.836530] 81
[2025-04-13 13:56:31.836530] 144
[2025-04-13 13:56:31.837581] 225
[2025-04-13 13:56:31.837581] 324
[2025-04-13 13:56:31.845229] 324
[2025-04-13 13:56:31.845229] 256
[2025-04-13 13:56:31.845229] 144
[2025-04-13 13:56:31.845229] 36
[2025-04-13 13:56:31.845229] 0
[2025-04-13 13:56:31.845229] 64
[2025-04-13 13:56:31.845229] 169
[2025-04-13 13:56:31.845229] 289
[2025-04-13 13:56:31.854316] 324
[2025-04-13 13:56:31.854316] 169
[2025-04-13 13:56:31.854316] 49
[2025-04-13 13:56:31.854316] 0
[2025-04-13 13:56:31.854316] 36
[2025-04-13 13:56:31.854316] 100
[2025-04-13 13:56:31.854316] 144
[2025-04-13 13:56:31.862785] 196
[2025-04-13 13:56:31.862785] 196
[2025-04-13 13:56:31.862785] 169
[2025-04-13 13:56:31.862785] 144
[2025-04-13 13:56:31.862785] 100
[2025-04-13 13:56:31.862785] 25
[2025-04-13 13:56:31.863320] 1
[2025-04-13 13:56:31.870772] 49
[2025-04-13 13:56:31.870772] 144
[2025-04-13 13:56:31.870772] 289
[2025-04-13 13:56:31.870772] 256
[2025-04-13 13:56:31.871659] 144
[2025-04-13 13:56:31.871659] 16
[2025-04-13 13:56:31.871659] 9
[2025-04-13 13:56:31.877923] 100
[2025-04-13 13:56:31.878953] 196
[2025-04-13 13:56:31.878953] 225
[2025-04-13 13:56:31.878953] 256
[2025-04-13 13:56:31.878953] 196
[2025-04-13 13:56:31.878953] 144
[2025-04-13 13:56:31.878953] 81
[2025-04-13 13:56:31.888016] 36
[2025-04-13 13:56:31.888016] 1
[2025-04-13 13:56:31.888016] 16
[2025-04-13 13:56:31.888016] 81
[2025-04-13 13:56:31.888016] 169
[2025-04-13 13:56:31.888016] 225
[2025-04-13 13:56:31.888016] 169
[2025-04-13 13:56:31.896170] 64
[2025-04-13 13:56:31.896170] 16
[2025-04-13 13:56:31.896170] 0
[2025-04-13 13:56:31.896170] 25
[2025-04-13 13:56:31.896170] 100
[2025-04-13 13:56:31.896170] 225
[2025-04-13 13:56:31.897057] 256
[2025-04-13 13:56:31.905096] 225
[2025-04-13 13:56:31.906025] 169
[2025-04-13 13:56:31.906025] 100
[2025-04-13 13:56:31.906025] 81
[2025-04-13 13:56:31.906025] 36
[2025-04-13 13:56:31.906025] 0
[2025-04-13 13:56:31.907065] 64
[2025-04-13 13:56:31.907065] 256
[2025-04-13 13:56:31.914147] 400
[2025-04-13 13:56:31.914147] 361
[2025-04-13 13:56:31.914147] 169
[2025-04-13 13:56:31.914147] 4
[2025-04-13 13:56:31.914147] 64
[2025-04-13 13:56:31.914147] 196
[2025-04-13 13:56:31.914147] 256
[2025-04-13 13:56:31.922297] 256
[2025-04-13 13:56:31.922297] 256
[2025-04-13 13:56:31.922297] 196
[2025-04-13 13:56:31.922297] 144
[2025-04-13 13:56:31.922297] 81
[2025-04-13 13:56:31.922297] 16
[2025-04-13 13:56:31.922297] 1
[2025-04-13 13:56:31.930420] 64
[2025-04-13 13:56:31.931312] 144
[2025-04-13 13:56:31.931312] 256
[2025-04-13 13:56:31.931312] 289
[2025-04-13 13:56:31.931312] 225
[2025-04-13 13:56:31.931312] 64
[2025-04-13 13:56:31.931312] 0
[2025-04-13 13:56:31.939237] 64
[2025-04-13 13:56:31.939237] 169
[2025-04-13 13:56:31.939237] 289
[2025-04-13 13:56:31.939237] 324
[2025-04-13 13:56:31.939237] 324
[2025-04-13 13:56:31.939237] 196
[2025-04-13 13:56:31.939237] 100
[2025-04-13 13:56:31.947712] 36
[2025-04-13 13:56:31.947712] 0
[2025-04-13 13:56:31.947712] 25
[2025-04-13 13:56:31.948728] 100
[2025-04-13 13:56:31.948728] 169
[2025-04-13 13:56:31.948728] 225
[2025-04-13 13:56:31.948728] 225
[2025-04-13 13:56:31.956072] 100
[2025-04-13 13:56:31.956072] 9
[2025-04-13 13:56:31.956072] 16
[2025-04-13 13:56:31.956072] 121
[2025-04-13 13:56:31.956072] 196
[2025-04-13 13:56:31.956072] 225
[2025-04-13 13:56:31.956072] 256
[2025-04-13 13:56:31.963939] 225
[2025-04-13 13:56:31.963939] 196
[2025-04-13 13:56:31.963939] 100
[2025-04-13 13:56:31.963939] 36
[2025-04-13 13:56:31.964926] 0
[2025-04-13 13:56:31.964926] 36
[2025-04-13 13:56:31.964926] 121
[2025-04-13 13:56:31.972913] 256
[2025-04-13 13:56:31.972913] 289
[2025-04-13 13:56:31.972913] 256
[2025-04-13 13:56:31.972913] 144
[2025-04-13 13:56:31.972913] 16
[2025-04-13 13:56:31.972913] 9
[2025-04-13 13:56:31.972913] 100
[2025-04-13 13:56:31.981334] 256
[2025-04-13 13:56:31.981334] 324
[2025-04-13 13:56:31.981334] 324
[2025-04-13 13:56:31.981334] 256
[2025-04-13 13:56:31.981334] 196
[2025-04-13 13:56:31.981334] 81
[2025-04-13 13:56:31.981334] 25
[2025-04-13 13:56:31.989364] 1
[2025-04-13 13:56:31.989364] 49
[2025-04-13 13:56:31.989364] 144
[2025-04-13 13:56:31.989364] 225
[2025-04-13 13:56:31.989364] 256
[2025-04-13 13:56:31.989364] 169
[2025-04-13 13:56:31.989364] 36
[2025-04-13 13:56:31.990402] 1
[2025-04-13 13:56:31.997861] 25
[2025-04-13 13:56:31.998858] 100
[2025-04-13 13:56:31.998858] 225
[2025-04-13 13:56:31.998858] 361
[2025-04-13 13:56:31.998858] 400
[2025-04-13 13:56:31.998858] 225
[2025-04-13 13:56:32.006979] 100
[2025-04-13 13:56:32.006979] 36
[2025-04-13 13:56:32.007875] 4
[2025-04-13 13:56:32.007875] 1
[2025-04-13 13:56:32.007875] 36
[2025-04-13 13:56:32.007875] 121
[2025-04-13 13:56:32.007875] 289
[2025-04-13 13:56:32.007875] 324
[2025-04-13 13:56:32.015934] 225
[2025-04-13 13:56:32.015934] 64
[2025-04-13 13:56:32.015934] 0
[2025-04-13 13:56:32.015934] 49
[2025-04-13 13:56:32.015934] 169
[2025-04-13 13:56:32.015934] 225
[2025-04-13 13:56:32.015934] 225
[2025-04-13 13:56:32.024415] 256
[2025-04-13 13:56:32.024415] 256
[2025-04-13 13:56:32.024415] 169
[2025-04-13 13:56:32.024415] 100
[2025-04-13 13:56:32.024415] 25
[2025-04-13 13:56:32.024415] 0
[2025-04-13 13:56:32.025375] 49
[2025-04-13 13:56:32.032523] 225
[2025-04-13 13:56:32.032523] 441
[2025-04-13 13:56:32.032523] 400
[2025-04-13 13:56:32.032523] 196
[2025-04-13 13:56:32.033376] 36
[2025-04-13 13:56:32.033376] 9
[2025-04-13 13:56:32.033376] 100
[2025-04-13 13:56:32.041257] 196
[2025-04-13 13:56:32.041257] 256
[2025-04-13 13:56:32.041257] 289
[2025-04-13 13:56:32.041257] 225
[2025-04-13 13:56:32.041257] 144
[2025-04-13 13:56:32.041257] 81
[2025-04-13 13:56:32.041257] 36
[2025-04-13 13:56:32.050393] 1
[2025-04-13 13:56:32.050393] 9
[2025-04-13 13:56:32.050393] 64
[2025-04-13 13:56:32.050393] 169
[2025-04-13 13:56:32.050393] 196
[2025-04-13 13:56:32.050393] 169
[2025-04-13 13:56:32.050393] 81
[2025-04-13 13:56:32.050393] 4
[2025-04-13 13:56:32.058257] 9
[2025-04-13 13:56:32.058257] 64
[2025-04-13 13:56:32.058257] 144
[2025-04-13 13:56:32.059249] 225
[2025-04-13 13:56:32.059249] 256
[2025-04-13 13:56:32.059249] 256
[2025-04-13 13:56:32.059249] 196
[2025-04-13 13:56:32.067315] 121
[2025-04-13 13:56:32.067315] 49
[2025-04-13 13:56:32.067315] 1
[2025-04-13 13:56:32.067315] 36
[2025-04-13 13:56:32.067315] 144
[2025-04-13 13:56:32.067315] 289
[2025-04-13 13:56:32.067315] 361
[2025-04-13 13:56:32.075597] 289
[2025-04-13 13:56:32.075597] 100
[2025-04-13 13:56:32.075597] 4
[2025-04-13 13:56:32.075597] 25
[2025-04-13 13:56:32.075597] 100
[2025-04-13 13:56:32.075597] 196
[2025-04-13 13:56:32.075597] 256
[2025-04-13 13:56:32.083596] 289
[2025-04-13 13:56:32.083596] 225
[2025-04-13 13:56:32.083596] 169
[2025-04-13 13:56:32.083596] 144
[2025-04-13 13:56:32.083596] 64
[2025-04-13 13:56:32.083596] 0
[2025-04-13 13:56:32.084587] 49
[2025-04-13 13:56:32.092475] 144
[2025-04-13 13:56:32.093553] 256
[2025-04-13 13:56:32.093553] 256
[2025-04-13 13:56:32.093553] 144
[2025-04-13 13:56:32.093553] 49
[2025-04-13 13:56:32.093553] 1
[2025-04-13 13:56:32.093553] 16
[2025-04-13 13:56:32.093553] 64
[2025-04-13 13:56:32.101715] 169
[2025-04-13 13:56:32.101715] 256
[2025-04-13 13:56:32.101715] 324
[2025-04-13 13:56:32.101715] 289
[2025-04-13 13:56:32.102703] 169
[2025-04-13 13:56:32.102703] 64
[2025-04-13 13:56:32.102703] 4
[2025-04-13 13:56:32.109707] 4
[2025-04-13 13:56:32.109707] 49
[2025-04-13 13:56:32.109707] 121
[2025-04-13 13:56:32.109707] 256
[2025-04-13 13:56:32.109707] 324
[2025-04-13 13:56:32.109707] 256
[2025-04-13 13:56:32.109707] 64
[2025-04-13 13:56:32.118599] 0
[2025-04-13 13:56:32.118599] 81
[2025-04-13 13:56:32.118599] 196
[2025-04-13 13:56:32.118599] 289
[2025-04-13 13:56:32.118599] 361
[2025-04-13 13:56:32.118599] 289
[2025-04-13 13:56:32.118599] 169
[2025-04-13 13:56:32.126986] 100
[2025-04-13 13:56:32.126986] 36
[2025-04-13 13:56:32.126986] 0
[2025-04-13 13:56:32.126986] 36
[2025-04-13 13:56:32.126986] 100
[2025-04-13 13:56:32.126986] 196
[2025-04-13 13:56:32.126986] 225
[2025-04-13 13:56:32.134657] 196
[2025-04-13 13:56:32.135521] 100
[2025-04-13 13:56:32.135521] 4
[2025-04-13 13:56:32.135521] 25
[2025-04-13 13:56:32.135521] 100
[2025-04-13 13:56:32.135521] 169
[2025-04-13 13:56:32.135521] 196
[2025-04-13 13:56:32.143517] 256
[2025-04-13 13:56:32.143517] 256
[2025-04-13 13:56:32.143517] 225
[2025-04-13 13:56:32.143517] 144
[2025-04-13 13:56:32.143517] 49
[2025-04-13 13:56:32.143517] 0
[2025-04-13 13:56:32.143517] 81
[2025-04-13 13:56:32.153322] 289
[2025-04-13 13:56:32.153322] 441
[2025-04-13 13:56:32.153322] 361
[2025-04-13 13:56:32.153322] 144
[2025-04-13 13:56:32.153322] 9
[2025-04-13 13:56:32.153322] 9
[2025-04-13 13:56:32.153322] 64
[2025-04-13 13:56:32.153322] 144
[2025-04-13 13:56:32.160472] 169
[2025-04-13 13:56:32.160472] 196
[2025-04-13 13:56:32.160472] 225
[2025-04-13 13:56:32.160472] 196
[2025-04-13 13:56:32.160472] 121
[2025-04-13 13:56:32.160472] 100
[2025-04-13 13:56:32.168469] 36
[2025-04-13 13:56:32.168469] 0
[2025-04-13 13:56:32.169327] 49
[2025-04-13 13:56:32.169327] 196
[2025-04-13 13:56:32.169327] 289
[2025-04-13 13:56:32.169327] 324
[2025-04-13 13:56:32.169327] 169
[2025-04-13 13:56:32.169327] 49
[2025-04-13 13:56:32.177624] 0
[2025-04-13 13:56:32.177624] 49
[2025-04-13 13:56:32.177624] 144
[2025-04-13 13:56:32.178641] 225
[2025-04-13 13:56:32.178641] 324
[2025-04-13 13:56:32.178641] 324
[2025-04-13 13:56:32.178641] 256
[2025-04-13 13:56:32.186827] 121
[2025-04-13 13:56:32.186827] 49
[2025-04-13 13:56:32.186827] 4
[2025-04-13 13:56:32.186827] 9
[2025-04-13 13:56:32.186827] 81
[2025-04-13 13:56:32.186827] 196
[2025-04-13 13:56:32.186827] 289
[2025-04-13 13:56:32.194835] 289
[2025-04-13 13:56:32.194835] 121
[2025-04-13 13:56:32.194835] 25
[2025-04-13 13:56:32.194835] 4
[2025-04-13 13:56:32.194835] 64
[2025-04-13 13:56:32.194835] 169
[2025-04-13 13:56:32.195826] 256
[2025-04-13 13:56:32.204314] 324
[2025-04-13 13:56:32.204314] 324
[2025-04-13 13:56:32.204314] 169
[2025-04-13 13:56:32.204314] 81
[2025-04-13 13:56:32.204314] 36
[2025-04-13 13:56:32.204839] 4
[2025-04-13 13:56:32.204839] 9
[2025-04-13 13:56:32.204839] 100
[2025-04-13 13:56:32.212228] 225
[2025-04-13 13:56:32.212228] 256
[2025-04-13 13:56:32.212228] 225
[2025-04-13 13:56:32.213267] 100
[2025-04-13 13:56:32.213267] 4
[2025-04-13 13:56:32.213267] 16
[2025-04-13 13:56:32.213267] 100
[2025-04-13 13:56:32.221393] 169
[2025-04-13 13:56:32.221393] 225
[2025-04-13 13:56:32.221393] 289
[2025-04-13 13:56:32.221393] 196
[2025-04-13 13:56:32.221393] 144
[2025-04-13 13:56:32.221393] 64
[2025-04-13 13:56:32.221393] 4
[2025-04-13 13:56:32.229870] 4
[2025-04-13 13:56:32.229870] 49
[2025-04-13 13:56:32.229870] 169
[2025-04-13 13:56:32.229870] 256
[2025-04-13 13:56:32.229870] 256
[2025-04-13 13:56:32.229870] 196
[2025-04-13 13:56:32.229870] 49
[2025-04-13 13:56:32.229870] 0
[2025-04-13 13:56:32.237991] 49
[2025-04-13 13:56:32.237991] 169
[2025-04-13 13:56:32.237991] 256
[2025-04-13 13:56:32.237991] 289
[2025-04-13 13:56:32.237991] 256
[2025-04-13 13:56:32.237991] 225
[2025-04-13 13:56:32.245992] 169
[2025-04-13 13:56:32.246851] 121
[2025-04-13 13:56:32.246851] 36
[2025-04-13 13:56:32.246851] 1
[2025-04-13 13:56:32.246851] 81
[2025-04-13 13:56:32.246851] 225
[2025-04-13 13:56:32.246851] 361
[2025-04-13 13:56:32.255904] 324
[2025-04-13 13:56:32.255904] 169
[2025-04-13 13:56:32.255904] 36
[2025-04-13 13:56:32.255904] 4
[2025-04-13 13:56:32.255904] 36
[2025-04-13 13:56:32.255904] 81
[2025-04-13 13:56:32.255904] 144
[2025-04-13 13:56:32.255904] 256
[2025-04-13 13:56:32.264057] 400
[2025-04-13 13:56:32.264057] 324
[2025-04-13 13:56:32.264057] 196
[2025-04-13 13:56:32.264057] 64
[2025-04-13 13:56:32.264057] 1
[2025-04-13 13:56:32.264057] 16
[2025-04-13 13:56:32.264057] 100
[2025-04-13 13:56:32.272911] 225
[2025-04-13 13:56:32.272911] 289
[2025-04-13 13:56:32.272911] 225
[2025-04-13 13:56:32.272911] 100
[2025-04-13 13:56:32.272911] 9
[2025-04-13 13:56:32.273928] 9
[2025-04-13 13:56:32.273928] 81
[2025-04-13 13:56:32.280915] 169
[2025-04-13 13:56:32.280915] 225
[2025-04-13 13:56:32.280915] 225
[2025-04-13 13:56:32.280915] 225
[2025-04-13 13:56:32.280915] 169
[2025-04-13 13:56:32.281951] 144
[2025-04-13 13:56:32.281951] 81
[2025-04-13 13:56:32.289366] 4
[2025-04-13 13:56:32.289366] 9
[2025-04-13 13:56:32.289366] 121
[2025-04-13 13:56:32.289366] 289
[2025-04-13 13:56:32.289366] 324
[2025-04-13 13:56:32.289366] 289
[2025-04-13 13:56:32.289366] 100
[2025-04-13 13:56:32.289366] 4
[2025-04-13 13:56:32.298081] 16
[2025-04-13 13:56:32.298081] 81
[2025-04-13 13:56:32.298081] 144
[2025-04-13 13:56:32.298081] 169
[2025-04-13 13:56:32.298081] 196
[2025-04-13 13:56:32.298081] 196
[2025-04-13 13:56:32.307250] 169
[2025-04-13 13:56:32.307250] 121
[2025-04-13 13:56:32.307250] 64
[2025-04-13 13:56:32.307250] 4
[2025-04-13 13:56:32.307250] 16
[2025-04-13 13:56:32.307250] 81
[2025-04-13 13:56:32.307250] 169
[2025-04-13 13:56:32.307250] 196
[2025-04-13 13:56:32.315509] 144
[2025-04-13 13:56:32.315509] 81
[2025-04-13 13:56:32.315509] 9
[2025-04-13 13:56:32.315509] 16
[2025-04-13 13:56:32.315509] 100
[2025-04-13 13:56:32.315509] 169
[2025-04-13 13:56:32.315509] 225
[2025-04-13 13:56:32.324099] 256
[2025-04-13 13:56:32.324099] 196
[2025-04-13 13:56:32.324099] 144
[2025-04-13 13:56:32.324099] 81
[2025-04-13 13:56:32.325078] 16
[2025-04-13 13:56:32.325078] 1
[2025-04-13 13:56:32.325078] 81
[2025-04-13 13:56:32.332072] 196
[2025-04-13 13:56:32.332072] 324
[2025-04-13 13:56:32.332072] 289
[2025-04-13 13:56:32.332072] 169
[2025-04-13 13:56:32.332072] 36
[2025-04-13 13:56:32.332072] 1
[2025-04-13 13:56:32.334096] 49
[2025-04-13 13:56:32.335074] 144
[2025-04-13 13:56:32.340071] 225
[2025-04-13 13:56:32.341071] 289
[2025-04-13 13:56:32.341071] 289
[2025-04-13 13:56:32.341071] 225
[2025-04-13 13:56:32.341071] 169
[2025-04-13 13:56:32.341071] 81
[2025-04-13 13:56:32.341071] 4
[2025-04-13 13:56:32.349222] 9
[2025-04-13 13:56:32.350293] 64
[2025-04-13 13:56:32.350293] 144
[2025-04-13 13:56:32.350293] 196
[2025-04-13 13:56:32.350293] 196
[2025-04-13 13:56:32.350293] 144
[2025-04-13 13:56:32.350293] 49
[2025-04-13 13:56:32.358381] 0
[2025-04-13 13:56:32.358381] 36
[2025-04-13 13:56:32.358381] 100
[2025-04-13 13:56:32.359281] 196
[2025-04-13 13:56:32.359281] 256
[2025-04-13 13:56:32.359281] 256
[2025-04-13 13:56:32.359281] 196
[2025-04-13 13:56:32.366255] 144
[2025-04-13 13:56:32.366255] 100
[2025-04-13 13:56:32.366255] 25
[2025-04-13 13:56:32.366255] 16
[2025-04-13 13:56:32.367260] 169
[2025-04-13 13:56:32.367260] 361
[2025-04-13 13:56:32.367260] 289
[2025-04-13 13:56:32.374708] 121
