[2025-04-13 13:56:02.329400] 25
[2025-04-13 13:56:02.329400] 100
[2025-04-13 13:56:02.329400] 196
[2025-04-13 13:56:02.329400] 196
[2025-04-13 13:56:02.329400] 144
[2025-04-13 13:56:03.794177] 961
[2025-04-13 13:56:03.794177] 12544
[2025-04-13 13:56:03.794177] 32041
[2025-04-13 13:56:03.794177] 4294936356
[2025-04-13 13:56:03.800292] 24649
[2025-04-13 13:56:03.801140] 13456
[2025-04-13 13:56:03.801140] 6400
[2025-04-13 13:56:03.801140] 2704
[2025-04-13 13:56:03.801140] 900
[2025-04-13 13:56:03.808290] 121
[2025-04-13 13:56:03.808290] 25
[2025-04-13 13:56:03.808290] 324
[2025-04-13 13:56:03.808290] 784
[2025-04-13 13:56:03.808290] 1156
[2025-04-13 13:56:03.808290] 1225
[2025-04-13 13:56:03.814362] 1156
[2025-04-13 13:56:03.814362] 1225
[2025-04-13 13:56:03.814362] 1296
[2025-04-13 13:56:03.814362] 1600
[2025-04-13 13:56:03.815407] 1849
[2025-04-13 13:56:03.821713] 2209
[2025-04-13 13:56:03.821713] 2704
[2025-04-13 13:56:03.822570] 3249
[2025-04-13 13:56:03.822570] 3481
[2025-04-13 13:56:03.822570] 3844
[2025-04-13 13:56:03.822570] 3969
[2025-04-13 13:56:03.828866] 4096
[2025-04-13 13:56:03.828866] 3721
[2025-04-13 13:56:03.828866] 2916
[2025-04-13 13:56:03.828866] 1764
[2025-04-13 13:56:03.828866] 784
[2025-04-13 13:56:03.836915] 169
[2025-04-13 13:56:03.836915] 0
[2025-04-13 13:56:03.836915] 81
[2025-04-13 13:56:03.836915] 225
[2025-04-13 13:56:03.836915] 324
[2025-04-13 13:56:03.836915] 324
[2025-04-13 13:56:03.836915] 144
[2025-04-13 13:56:03.836915] 36
[2025-04-13 13:56:03.845066] 1
[2025-04-13 13:56:03.845066] 81
[2025-04-13 13:56:03.845066] 324
[2025-04-13 13:56:03.845066] 625
[2025-04-13 13:56:03.845947] 961
[2025-04-13 13:56:03.845947] 1089
[2025-04-13 13:56:03.854043] 900
[2025-04-13 13:56:03.854043] 484
[2025-04-13 13:56:03.854043] 144
[2025-04-13 13:56:03.854043] 0
[2025-04-13 13:56:03.854043] 100
[2025-04-13 13:56:03.854043] 361
[2025-04-13 13:56:03.854043] 729
[2025-04-13 13:56:03.861411] 1024
[2025-04-13 13:56:03.861411] 1089
[2025-04-13 13:56:03.861411] 961
[2025-04-13 13:56:03.861411] 729
[2025-04-13 13:56:03.861411] 484
[2025-04-13 13:56:03.861411] 144
[2025-04-13 13:56:03.861411] 1
[2025-04-13 13:56:03.869414] 81
[2025-04-13 13:56:03.869414] 361
[2025-04-13 13:56:03.869414] 529
[2025-04-13 13:56:03.869414] 576
[2025-04-13 13:56:03.869414] 441
[2025-04-13 13:56:03.869414] 225
[2025-04-13 13:56:03.877386] 64
[2025-04-13 13:56:03.877386] 1
[2025-04-13 13:56:03.878426] 25
[2025-04-13 13:56:03.878426] 144
[2025-04-13 13:56:03.878426] 289
[2025-04-13 13:56:03.878426] 400
[2025-04-13 13:56:03.878426] 484
[2025-04-13 13:56:03.886429] 484
[2025-04-13 13:56:03.886429] 361
[2025-04-13 13:56:03.886429] 196
[2025-04-13 13:56:03.886429] 49
[2025-04-13 13:56:03.886429] 0
[2025-04-13 13:56:03.886429] 49
[2025-04-13 13:56:03.886429] 144
[2025-04-13 13:56:03.886429] 196
[2025-04-13 13:56:03.896867] 144
[2025-04-13 13:56:03.896867] 36
[2025-04-13 13:56:03.896867] 1
[2025-04-13 13:56:03.896867] 1
[2025-04-13 13:56:03.896867] 4
[2025-04-13 13:56:03.896867] 9
[2025-04-13 13:56:03.896867] 16
[2025-04-13 13:56:03.896867] 25
[2025-04-13 13:56:03.907872] 36
[2025-04-13 13:56:03.907872] 36
[2025-04-13 13:56:03.907872] 25
[2025-04-13 13:56:03.907872] 9
[2025-04-13 13:56:03.907872] 1
[2025-04-13 13:56:03.907872] 0
[2025-04-13 13:56:03.908768] 4
[2025-04-13 13:56:03.908768] 4
[2025-04-13 13:56:03.908768] 1
[2025-04-13 13:56:03.908768] 1
[2025-04-13 13:56:03.918415] 16
[2025-04-13 13:56:03.918415] 25
[2025-04-13 13:56:03.918415] 25
[2025-04-13 13:56:03.918782] 36
[2025-04-13 13:56:03.918782] 36
[2025-04-13 13:56:03.918782] 16
[2025-04-13 13:56:03.918782] 1
[2025-04-13 13:56:03.918782] 0
[2025-04-13 13:56:03.918782] 0
[2025-04-13 13:56:03.928957] 1
[2025-04-13 13:56:03.928957] 9
[2025-04-13 13:56:03.928957] 25
[2025-04-13 13:56:03.928957] 36
[2025-04-13 13:56:03.928957] 36
[2025-04-13 13:56:03.928957] 25
[2025-04-13 13:56:03.928957] 4
[2025-04-13 13:56:03.928957] 1
[2025-04-13 13:56:03.928957] 36
[2025-04-13 13:56:03.935954] 100
[2025-04-13 13:56:03.935954] 196
[2025-04-13 13:56:03.936842] 225
[2025-04-13 13:56:03.936842] 196
[2025-04-13 13:56:03.936842] 144
[2025-04-13 13:56:03.936842] 81
[2025-04-13 13:56:03.936842] 25
[2025-04-13 13:56:03.945867] 1
[2025-04-13 13:56:03.945867] 1
[2025-04-13 13:56:03.945867] 36
[2025-04-13 13:56:03.945867] 100
[2025-04-13 13:56:03.945867] 196
[2025-04-13 13:56:03.945867] 256
[2025-04-13 13:56:03.945867] 225
[2025-04-13 13:56:03.954231] 121
[2025-04-13 13:56:03.954231] 16
[2025-04-13 13:56:03.954231] 9
[2025-04-13 13:56:03.954231] 100
[2025-04-13 13:56:03.954231] 225
[2025-04-13 13:56:03.954231] 400
[2025-04-13 13:56:03.954231] 484
[2025-04-13 13:56:03.962228] 441
[2025-04-13 13:56:03.962228] 256
[2025-04-13 13:56:03.962228] 121
[2025-04-13 13:56:03.962228] 36
[2025-04-13 13:56:03.962228] 0
[2025-04-13 13:56:03.962228] 36
[2025-04-13 13:56:03.962228] 169
[2025-04-13 13:56:03.971116] 289
[2025-04-13 13:56:03.971116] 400
[2025-04-13 13:56:03.971116] 361
[2025-04-13 13:56:03.971116] 196
[2025-04-13 13:56:03.971116] 49
[2025-04-13 13:56:03.971116] 0
[2025-04-13 13:56:03.971116] 49
[2025-04-13 13:56:03.979448] 196
[2025-04-13 13:56:03.979448] 324
[2025-04-13 13:56:03.979448] 400
[2025-04-13 13:56:03.979448] 441
[2025-04-13 13:56:03.979448] 361
[2025-04-13 13:56:03.979448] 256
[2025-04-13 13:56:03.979448] 121
[2025-04-13 13:56:03.986609] 16
[2025-04-13 13:56:03.986609] 16
[2025-04-13 13:56:03.986609] 144
[2025-04-13 13:56:03.986609] 324
[2025-04-13 13:56:03.987499] 441
[2025-04-13 13:56:03.987499] 324
[2025-04-13 13:56:03.987499] 121
[2025-04-13 13:56:03.995612] 9
[2025-04-13 13:56:03.996483] 16
[2025-04-13 13:56:03.996483] 81
[2025-04-13 13:56:03.996483] 121
[2025-04-13 13:56:03.996483] 144
[2025-04-13 13:56:03.996483] 196
[2025-04-13 13:56:03.996483] 169
[2025-04-13 13:56:04.004764] 144
[2025-04-13 13:56:04.005763] 100
[2025-04-13 13:56:04.005763] 49
[2025-04-13 13:56:04.005763] 4
[2025-04-13 13:56:04.005763] 4
[2025-04-13 13:56:04.005763] 49
[2025-04-13 13:56:04.005763] 144
[2025-04-13 13:56:04.014190] 225
[2025-04-13 13:56:04.014190] 196
[2025-04-13 13:56:04.014190] 81
[2025-04-13 13:56:04.014190] 9
[2025-04-13 13:56:04.014190] 9
[2025-04-13 13:56:04.014190] 64
[2025-04-13 13:56:04.014190] 121
[2025-04-13 13:56:04.014190] 169
[2025-04-13 13:56:04.022347] 225
[2025-04-13 13:56:04.022347] 196
[2025-04-13 13:56:04.022347] 169
[2025-04-13 13:56:04.022347] 121
[2025-04-13 13:56:04.022347] 36
[2025-04-13 13:56:04.022347] 0
[2025-04-13 13:56:04.022347] 49
[2025-04-13 13:56:04.030346] 144
[2025-04-13 13:56:04.031198] 225
[2025-04-13 13:56:04.031198] 196
[2025-04-13 13:56:04.031198] 100
[2025-04-13 13:56:04.031198] 25
[2025-04-13 13:56:04.031198] 0
[2025-04-13 13:56:04.031198] 49
[2025-04-13 13:56:04.038422] 121
[2025-04-13 13:56:04.039397] 196
[2025-04-13 13:56:04.039397] 256
[2025-04-13 13:56:04.039397] 256
[2025-04-13 13:56:04.039397] 196
[2025-04-13 13:56:04.039397] 121
[2025-04-13 13:56:04.039397] 64
[2025-04-13 13:56:04.047510] 9
[2025-04-13 13:56:04.047510] 9
[2025-04-13 13:56:04.047510] 81
[2025-04-13 13:56:04.047510] 196
[2025-04-13 13:56:04.047510] 256
[2025-04-13 13:56:04.048525] 225
[2025-04-13 13:56:04.048525] 121
[2025-04-13 13:56:04.048525] 36
[2025-04-13 13:56:04.056492] 0
[2025-04-13 13:56:04.056492] 16
[2025-04-13 13:56:04.056492] 81
[2025-04-13 13:56:04.056492] 169
[2025-04-13 13:56:04.057485] 256
[2025-04-13 13:56:04.057485] 289
[2025-04-13 13:56:04.057485] 225
[2025-04-13 13:56:04.065506] 169
[2025-04-13 13:56:04.065506] 100
[2025-04-13 13:56:04.065506] 16
[2025-04-13 13:56:04.065506] 4
[2025-04-13 13:56:04.065506] 64
[2025-04-13 13:56:04.066487] 169
[2025-04-13 13:56:04.066487] 225
[2025-04-13 13:56:04.073838] 169
[2025-04-13 13:56:04.073838] 81
[2025-04-13 13:56:04.073838] 16
[2025-04-13 13:56:04.073838] 1
[2025-04-13 13:56:04.073838] 49
[2025-04-13 13:56:04.073838] 81
[2025-04-13 13:56:04.073838] 144
[2025-04-13 13:56:04.073838] 169
[2025-04-13 13:56:04.082696] 169
[2025-04-13 13:56:04.082696] 144
[2025-04-13 13:56:04.082696] 100
[2025-04-13 13:56:04.083696] 64
[2025-04-13 13:56:04.083696] 16
[2025-04-13 13:56:04.083696] 1
[2025-04-13 13:56:04.083696] 36
[2025-04-13 13:56:04.091862] 121
[2025-04-13 13:56:04.091862] 169
[2025-04-13 13:56:04.091862] 169
[2025-04-13 13:56:04.091862] 81
[2025-04-13 13:56:04.091862] 4
[2025-04-13 13:56:04.091862] 16
[2025-04-13 13:56:04.091862] 81
[2025-04-13 13:56:04.100243] 144
[2025-04-13 13:56:04.101098] 144
[2025-04-13 13:56:04.101098] 121
[2025-04-13 13:56:04.101098] 100
[2025-04-13 13:56:04.101098] 49
[2025-04-13 13:56:04.101098] 25
[2025-04-13 13:56:04.101098] 4
[2025-04-13 13:56:04.101098] 0
[2025-04-13 13:56:04.110469] 25
[2025-04-13 13:56:04.110469] 64
[2025-04-13 13:56:04.110469] 100
[2025-04-13 13:56:04.110469] 121
[2025-04-13 13:56:04.110469] 64
[2025-04-13 13:56:04.110469] 4
[2025-04-13 13:56:04.110469] 4
[2025-04-13 13:56:04.110469] 49
[2025-04-13 13:56:04.118199] 100
[2025-04-13 13:56:04.118199] 144
[2025-04-13 13:56:04.119089] 169
[2025-04-13 13:56:04.119089] 169
[2025-04-13 13:56:04.119089] 121
[2025-04-13 13:56:04.119089] 64
[2025-04-13 13:56:04.119089] 25
[2025-04-13 13:56:04.128170] 1
[2025-04-13 13:56:04.128170] 9
[2025-04-13 13:56:04.128170] 49
[2025-04-13 13:56:04.129062] 121
[2025-04-13 13:56:04.129062] 196
[2025-04-13 13:56:04.129062] 169
[2025-04-13 13:56:04.129062] 81
[2025-04-13 13:56:04.129062] 9
[2025-04-13 13:56:04.135367] 16
[2025-04-13 13:56:04.136359] 100
[2025-04-13 13:56:04.136359] 196
[2025-04-13 13:56:04.136359] 256
[2025-04-13 13:56:04.136359] 256
[2025-04-13 13:56:04.136359] 225
[2025-04-13 13:56:04.144385] 169
[2025-04-13 13:56:04.144385] 100
[2025-04-13 13:56:04.144385] 36
[2025-04-13 13:56:04.145356] 4
[2025-04-13 13:56:04.145356] 9
[2025-04-13 13:56:04.145356] 100
[2025-04-13 13:56:04.145356] 289
[2025-04-13 13:56:04.145356] 400
[2025-04-13 13:56:04.153397] 400
[2025-04-13 13:56:04.153397] 225
[2025-04-13 13:56:04.153397] 36
[2025-04-13 13:56:04.153397] 9
[2025-04-13 13:56:04.153397] 121
[2025-04-13 13:56:04.153397] 256
[2025-04-13 13:56:04.153397] 400
[2025-04-13 13:56:04.161805] 484
[2025-04-13 13:56:04.161805] 400
[2025-04-13 13:56:04.161805] 324
[2025-04-13 13:56:04.161805] 169
[2025-04-13 13:56:04.161805] 49
[2025-04-13 13:56:04.161805] 0
[2025-04-13 13:56:04.161805] 36
[2025-04-13 13:56:04.169972] 169
[2025-04-13 13:56:04.169972] 289
[2025-04-13 13:56:04.169972] 361
[2025-04-13 13:56:04.169972] 289
[2025-04-13 13:56:04.169972] 144
[2025-04-13 13:56:04.169972] 36
[2025-04-13 13:56:04.169972] 1
[2025-04-13 13:56:04.176972] 49
[2025-04-13 13:56:04.177831] 144
[2025-04-13 13:56:04.177831] 256
[2025-04-13 13:56:04.177831] 324
[2025-04-13 13:56:04.177831] 289
[2025-04-13 13:56:04.177831] 256
[2025-04-13 13:56:04.177831] 196
[2025-04-13 13:56:04.186223] 121
[2025-04-13 13:56:04.186223] 16
[2025-04-13 13:56:04.186223] 16
[2025-04-13 13:56:04.186223] 121
[2025-04-13 13:56:04.186223] 256
[2025-04-13 13:56:04.186223] 400
[2025-04-13 13:56:04.194576] 289
[2025-04-13 13:56:04.194576] 100
[2025-04-13 13:56:04.194576] 4
[2025-04-13 13:56:04.194576] 16
[2025-04-13 13:56:04.194576] 81
[2025-04-13 13:56:04.194576] 144
[2025-04-13 13:56:04.194576] 144
[2025-04-13 13:56:04.194576] 144
[2025-04-13 13:56:04.203455] 144
[2025-04-13 13:56:04.203455] 121
[2025-04-13 13:56:04.203455] 81
[2025-04-13 13:56:04.203455] 49
[2025-04-13 13:56:04.203455] 4
[2025-04-13 13:56:04.203455] 4
[2025-04-13 13:56:04.203455] 64
[2025-04-13 13:56:04.213278] 144
[2025-04-13 13:56:04.213278] 144
[2025-04-13 13:56:04.213278] 100
[2025-04-13 13:56:04.213278] 36
[2025-04-13 13:56:04.213815] 0
[2025-04-13 13:56:04.213815] 4
[2025-04-13 13:56:04.213815] 36
[2025-04-13 13:56:04.213815] 81
[2025-04-13 13:56:04.220822] 100
[2025-04-13 13:56:04.221858] 144
[2025-04-13 13:56:04.221858] 144
[2025-04-13 13:56:04.221858] 121
[2025-04-13 13:56:04.221858] 81
[2025-04-13 13:56:04.221858] 25
[2025-04-13 13:56:04.221858] 0
[2025-04-13 13:56:04.221858] 25
[2025-04-13 13:56:04.230872] 81
[2025-04-13 13:56:04.230872] 144
[2025-04-13 13:56:04.230872] 121
[2025-04-13 13:56:04.230872] 49
[2025-04-13 13:56:04.230872] 9
[2025-04-13 13:56:04.230872] 4
[2025-04-13 13:56:04.230872] 36
[2025-04-13 13:56:04.230872] 81
[2025-04-13 13:56:04.239836] 121
[2025-04-13 13:56:04.239836] 144
[2025-04-13 13:56:04.239836] 144
[2025-04-13 13:56:04.239836] 100
[2025-04-13 13:56:04.240869] 64
[2025-04-13 13:56:04.240869] 25
[2025-04-13 13:56:04.240869] 0
[2025-04-13 13:56:04.247976] 9
[2025-04-13 13:56:04.248836] 64
[2025-04-13 13:56:04.248836] 144
[2025-04-13 13:56:04.248836] 196
[2025-04-13 13:56:04.248836] 144
[2025-04-13 13:56:04.248836] 49
[2025-04-13 13:56:04.248836] 1
[2025-04-13 13:56:04.248836] 16
[2025-04-13 13:56:04.257129] 100
[2025-04-13 13:56:04.257129] 144
[2025-04-13 13:56:04.257129] 225
[2025-04-13 13:56:04.257129] 196
[2025-04-13 13:56:04.257129] 196
[2025-04-13 13:56:04.257129] 144
[2025-04-13 13:56:04.265278] 81
[2025-04-13 13:56:04.265278] 36
[2025-04-13 13:56:04.265278] 1
[2025-04-13 13:56:04.265278] 16
[2025-04-13 13:56:04.265278] 121
[2025-04-13 13:56:04.265278] 256
[2025-04-13 13:56:04.265278] 361
[2025-04-13 13:56:04.273141] 256
[2025-04-13 13:56:04.274134] 121
[2025-04-13 13:56:04.274134] 9
[2025-04-13 13:56:04.274134] 25
[2025-04-13 13:56:04.274134] 144
[2025-04-13 13:56:04.274134] 256
[2025-04-13 13:56:04.274134] 289
[2025-04-13 13:56:04.282705] 289
[2025-04-13 13:56:04.282705] 256
[2025-04-13 13:56:04.283696] 225
[2025-04-13 13:56:04.283696] 169
[2025-04-13 13:56:04.283696] 81
[2025-04-13 13:56:04.283696] 0
[2025-04-13 13:56:04.283696] 49
[2025-04-13 13:56:04.283696] 225
[2025-04-13 13:56:04.291735] 361
[2025-04-13 13:56:04.291735] 324
[2025-04-13 13:56:04.291735] 196
[2025-04-13 13:56:04.291735] 81
[2025-04-13 13:56:04.291735] 4
[2025-04-13 13:56:04.291735] 25
[2025-04-13 13:56:04.291735] 100
[2025-04-13 13:56:04.298885] 196
[2025-04-13 13:56:04.298885] 289
[2025-04-13 13:56:04.298885] 289
[2025-04-13 13:56:04.298885] 225
[2025-04-13 13:56:04.298885] 169
[2025-04-13 13:56:04.298885] 100
[2025-04-13 13:56:04.306748] 49
[2025-04-13 13:56:04.306748] 1
[2025-04-13 13:56:04.307740] 36
[2025-04-13 13:56:04.307740] 144
[2025-04-13 13:56:04.307740] 289
[2025-04-13 13:56:04.307740] 289
[2025-04-13 13:56:04.307740] 196
[2025-04-13 13:56:04.307740] 49
[2025-04-13 13:56:04.315402] 0
[2025-04-13 13:56:04.316418] 25
[2025-04-13 13:56:04.316418] 100
[2025-04-13 13:56:04.316418] 169
[2025-04-13 13:56:04.316418] 225
[2025-04-13 13:56:04.316418] 256
[2025-04-13 13:56:04.317403] 169
[2025-04-13 13:56:04.325407] 121
[2025-04-13 13:56:04.325407] 64
[2025-04-13 13:56:04.325407] 9
[2025-04-13 13:56:04.325407] 4
[2025-04-13 13:56:04.325407] 64
[2025-04-13 13:56:04.325407] 144
[2025-04-13 13:56:04.325407] 196
[2025-04-13 13:56:04.333708] 169
[2025-04-13 13:56:04.333708] 121
[2025-04-13 13:56:04.333708] 16
[2025-04-13 13:56:04.333708] 1
[2025-04-13 13:56:04.333708] 36
[2025-04-13 13:56:04.333708] 100
[2025-04-13 13:56:04.333708] 169
[2025-04-13 13:56:04.341855] 225
[2025-04-13 13:56:04.341855] 225
[2025-04-13 13:56:04.341855] 144
[2025-04-13 13:56:04.341855] 121
[2025-04-13 13:56:04.341855] 64
[2025-04-13 13:56:04.341855] 4
[2025-04-13 13:56:04.341855] 16
[2025-04-13 13:56:04.341855] 100
[2025-04-13 13:56:04.350740] 225
[2025-04-13 13:56:04.350740] 256
[2025-04-13 13:56:04.350740] 144
[2025-04-13 13:56:04.351781] 64
[2025-04-13 13:56:04.351781] 4
[2025-04-13 13:56:04.351781] 16
[2025-04-13 13:56:04.351781] 100
[2025-04-13 13:56:04.358911] 144
[2025-04-13 13:56:04.358911] 225
[2025-04-13 13:56:04.359813] 256
[2025-04-13 13:56:04.359813] 196
[2025-04-13 13:56:04.359813] 144
[2025-04-13 13:56:04.359813] 81
[2025-04-13 13:56:04.359813] 25
[2025-04-13 13:56:04.368236] 0
[2025-04-13 13:56:04.368236] 25
[2025-04-13 13:56:04.368236] 100
[2025-04-13 13:56:04.368236] 196
[2025-04-13 13:56:04.368236] 196
[2025-04-13 13:56:04.368236] 121
[2025-04-13 13:56:04.368236] 49
[2025-04-13 13:56:04.376241] 1
[2025-04-13 13:56:04.376241] 16
[2025-04-13 13:56:04.376241] 64
[2025-04-13 13:56:04.376241] 144
[2025-04-13 13:56:04.376241] 196
[2025-04-13 13:56:04.376241] 196
[2025-04-13 13:56:04.376241] 169
[2025-04-13 13:56:04.384248] 121
[2025-04-13 13:56:04.385243] 64
[2025-04-13 13:56:04.385243] 16
[2025-04-13 13:56:04.385243] 0
[2025-04-13 13:56:04.385243] 36
[2025-04-13 13:56:04.385243] 121
[2025-04-13 13:56:04.385243] 196
[2025-04-13 13:56:04.394026] 169
[2025-04-13 13:56:04.394026] 100
[2025-04-13 13:56:04.394026] 16
[2025-04-13 13:56:04.394026] 0
[2025-04-13 13:56:04.394026] 25
[2025-04-13 13:56:04.394026] 81
[2025-04-13 13:56:04.394026] 144
[2025-04-13 13:56:04.394026] 169
[2025-04-13 13:56:04.402025] 169
[2025-04-13 13:56:04.402025] 169
[2025-04-13 13:56:04.403016] 169
[2025-04-13 13:56:04.403016] 121
[2025-04-13 13:56:04.403016] 36
[2025-04-13 13:56:04.403016] 4
[2025-04-13 13:56:04.403016] 81
[2025-04-13 13:56:04.411142] 225
[2025-04-13 13:56:04.411142] 289
[2025-04-13 13:56:04.411142] 196
[2025-04-13 13:56:04.411142] 100
[2025-04-13 13:56:04.411142] 16
[2025-04-13 13:56:04.412152] 1
[2025-04-13 13:56:04.412152] 49
[2025-04-13 13:56:04.419315] 121
[2025-04-13 13:56:04.419315] 225
[2025-04-13 13:56:04.419315] 225
[2025-04-13 13:56:04.419315] 196
[2025-04-13 13:56:04.419315] 144
[2025-04-13 13:56:04.419315] 100
[2025-04-13 13:56:04.419315] 36
[2025-04-13 13:56:04.427180] 0
[2025-04-13 13:56:04.427180] 25
[2025-04-13 13:56:04.428204] 100
[2025-04-13 13:56:04.428204] 196
[2025-04-13 13:56:04.428204] 225
[2025-04-13 13:56:04.428204] 144
[2025-04-13 13:56:04.428204] 36
[2025-04-13 13:56:04.436232] 0
[2025-04-13 13:56:04.436232] 36
[2025-04-13 13:56:04.436232] 100
[2025-04-13 13:56:04.436232] 196
[2025-04-13 13:56:04.436232] 256
[2025-04-13 13:56:04.436232] 225
[2025-04-13 13:56:04.436232] 225
[2025-04-13 13:56:04.444904] 144
[2025-04-13 13:56:04.444904] 81
[2025-04-13 13:56:04.444904] 16
[2025-04-13 13:56:04.444904] 1
[2025-04-13 13:56:04.444904] 64
[2025-04-13 13:56:04.444904] 169
[2025-04-13 13:56:04.444904] 256
[2025-04-13 13:56:04.453050] 289
[2025-04-13 13:56:04.453050] 169
[2025-04-13 13:56:04.453050] 49
[2025-04-13 13:56:04.453050] 0
[2025-04-13 13:56:04.453050] 49
[2025-04-13 13:56:04.453050] 144
[2025-04-13 13:56:04.453050] 256
[2025-04-13 13:56:04.453050] 289
[2025-04-13 13:56:04.462215] 256
[2025-04-13 13:56:04.462215] 225
[2025-04-13 13:56:04.462215] 144
[2025-04-13 13:56:04.462215] 81
[2025-04-13 13:56:04.462215] 9
[2025-04-13 13:56:04.462215] 9
[2025-04-13 13:56:04.462215] 81
[2025-04-13 13:56:04.470475] 225
[2025-04-13 13:56:04.470475] 324
[2025-04-13 13:56:04.470475] 256
[2025-04-13 13:56:04.470475] 144
[2025-04-13 13:56:04.470475] 25
[2025-04-13 13:56:04.470475] 0
[2025-04-13 13:56:04.470475] 36
[2025-04-13 13:56:04.479477] 121
[2025-04-13 13:56:04.479477] 196
[2025-04-13 13:56:04.479477] 256
[2025-04-13 13:56:04.479477] 289
[2025-04-13 13:56:04.479477] 225
[2025-04-13 13:56:04.479477] 144
[2025-04-13 13:56:04.479477] 81
[2025-04-13 13:56:04.487875] 16
[2025-04-13 13:56:04.487875] 1
[2025-04-13 13:56:04.487875] 64
[2025-04-13 13:56:04.487875] 169
[2025-04-13 13:56:04.487875] 256
[2025-04-13 13:56:04.487875] 196
[2025-04-13 13:56:04.487875] 121
[2025-04-13 13:56:04.496316] 25
[2025-04-13 13:56:04.496316] 0
[2025-04-13 13:56:04.496316] 36
[2025-04-13 13:56:04.496316] 121
[2025-04-13 13:56:04.496316] 169
[2025-04-13 13:56:04.496316] 225
[2025-04-13 13:56:04.496316] 225
[2025-04-13 13:56:04.505317] 144
[2025-04-13 13:56:04.505317] 81
[2025-04-13 13:56:04.505317] 49
[2025-04-13 13:56:04.506319] 16
[2025-04-13 13:56:04.506319] 0
[2025-04-13 13:56:04.506319] 36
[2025-04-13 13:56:04.506319] 121
[2025-04-13 13:56:04.506319] 225
[2025-04-13 13:56:04.513428] 196
[2025-04-13 13:56:04.513428] 100
[2025-04-13 13:56:04.513428] 16
[2025-04-13 13:56:04.513428] 1
[2025-04-13 13:56:04.513428] 36
[2025-04-13 13:56:04.514435] 121
[2025-04-13 13:56:04.514435] 169
[2025-04-13 13:56:04.522433] 196
[2025-04-13 13:56:04.522433] 196
[2025-04-13 13:56:04.522433] 144
[2025-04-13 13:56:04.522433] 100
[2025-04-13 13:56:04.522433] 36
[2025-04-13 13:56:04.522433] 0
[2025-04-13 13:56:04.522433] 36
[2025-04-13 13:56:04.530737] 100
[2025-04-13 13:56:04.530737] 196
[2025-04-13 13:56:04.530737] 196
[2025-04-13 13:56:04.530737] 100
[2025-04-13 13:56:04.530737] 25
[2025-04-13 13:56:04.530737] 0
[2025-04-13 13:56:04.530737] 36
[2025-04-13 13:56:04.530737] 121
[2025-04-13 13:56:04.539278] 169
[2025-04-13 13:56:04.539278] 169
[2025-04-13 13:56:04.540271] 144
[2025-04-13 13:56:04.540271] 81
[2025-04-13 13:56:04.540271] 64
[2025-04-13 13:56:04.540271] 36
[2025-04-13 13:56:04.540271] 16
[2025-04-13 13:56:04.548279] 1
[2025-04-13 13:56:04.548279] 16
[2025-04-13 13:56:04.548279] 100
[2025-04-13 13:56:04.548279] 196
[2025-04-13 13:56:04.548279] 225
[2025-04-13 13:56:04.548279] 121
[2025-04-13 13:56:04.548279] 16
[2025-04-13 13:56:04.556886] 4
[2025-04-13 13:56:04.556886] 49
[2025-04-13 13:56:04.556886] 121
[2025-04-13 13:56:04.556886] 169
[2025-04-13 13:56:04.556886] 196
[2025-04-13 13:56:04.556886] 196
[2025-04-13 13:56:04.556886] 169
[2025-04-13 13:56:04.564612] 100
[2025-04-13 13:56:04.565621] 49
[2025-04-13 13:56:04.565621] 4
[2025-04-13 13:56:04.565621] 4
[2025-04-13 13:56:04.565621] 81
[2025-04-13 13:56:04.565621] 196
[2025-04-13 13:56:04.565621] 225
[2025-04-13 13:56:04.565621] 196
[2025-04-13 13:56:04.574000] 81
[2025-04-13 13:56:04.574862] 4
[2025-04-13 13:56:04.574862] 16
[2025-04-13 13:56:04.574862] 81
[2025-04-13 13:56:04.574862] 144
[2025-04-13 13:56:04.575866] 169
[2025-04-13 13:56:04.575866] 196
[2025-04-13 13:56:04.582875] 196
[2025-04-13 13:56:04.582875] 144
[2025-04-13 13:56:04.582875] 100
[2025-04-13 13:56:04.582875] 36
[2025-04-13 13:56:04.582875] 0
[2025-04-13 13:56:04.582875] 16
[2025-04-13 13:56:04.582875] 64
[2025-04-13 13:56:04.592499] 144
[2025-04-13 13:56:04.592499] 225
[2025-04-13 13:56:04.592499] 196
[2025-04-13 13:56:04.592499] 81
[2025-04-13 13:56:04.592499] 16
[2025-04-13 13:56:04.592499] 1
[2025-04-13 13:56:04.592499] 36
[2025-04-13 13:56:04.593507] 100
[2025-04-13 13:56:04.600803] 225
[2025-04-13 13:56:04.600803] 324
[2025-04-13 13:56:04.600803] 324
[2025-04-13 13:56:04.600803] 225
[2025-04-13 13:56:04.600803] 121
[2025-04-13 13:56:04.601858] 36
[2025-04-13 13:56:04.601858] 0
[2025-04-13 13:56:04.608813] 49
[2025-04-13 13:56:04.608813] 144
[2025-04-13 13:56:04.608813] 225
[2025-04-13 13:56:04.608813] 225
[2025-04-13 13:56:04.608813] 144
[2025-04-13 13:56:04.608813] 49
[2025-04-13 13:56:04.608813] 0
[2025-04-13 13:56:04.617604] 25
[2025-04-13 13:56:04.617604] 81
[2025-04-13 13:56:04.617604] 144
[2025-04-13 13:56:04.617604] 196
[2025-04-13 13:56:04.617604] 256
[2025-04-13 13:56:04.617604] 225
[2025-04-13 13:56:04.617604] 144
[2025-04-13 13:56:04.625533] 81
[2025-04-13 13:56:04.626393] 16
[2025-04-13 13:56:04.626393] 0
[2025-04-13 13:56:04.626393] 49
[2025-04-13 13:56:04.626393] 121
[2025-04-13 13:56:04.626393] 225
[2025-04-13 13:56:04.626393] 225
[2025-04-13 13:56:04.634567] 121
[2025-04-13 13:56:04.634567] 25
[2025-04-13 13:56:04.634567] 0
[2025-04-13 13:56:04.634567] 25
[2025-04-13 13:56:04.634567] 121
[2025-04-13 13:56:04.634567] 196
[2025-04-13 13:56:04.634567] 225
[2025-04-13 13:56:04.643625] 225
[2025-04-13 13:56:04.643625] 169
[2025-04-13 13:56:04.643625] 144
[2025-04-13 13:56:04.643625] 81
[2025-04-13 13:56:04.643625] 9
[2025-04-13 13:56:04.643625] 9
[2025-04-13 13:56:04.643625] 81
[2025-04-13 13:56:04.643625] 169
[2025-04-13 13:56:04.651575] 225
[2025-04-13 13:56:04.651575] 196
[2025-04-13 13:56:04.653475] 100
[2025-04-13 13:56:04.654451] 16
[2025-04-13 13:56:04.654451] 1
[2025-04-13 13:56:04.654451] 49
[2025-04-13 13:56:04.654451] 121
[2025-04-13 13:56:04.660563] 196
[2025-04-13 13:56:04.660563] 256
[2025-04-13 13:56:04.660563] 256
[2025-04-13 13:56:04.660563] 196
[2025-04-13 13:56:04.660563] 121
[2025-04-13 13:56:04.660563] 49
[2025-04-13 13:56:04.660563] 1
[2025-04-13 13:56:04.669882] 16
[2025-04-13 13:56:04.669882] 100
[2025-04-13 13:56:04.669882] 196
[2025-04-13 13:56:04.669882] 225
[2025-04-13 13:56:04.669882] 196
[2025-04-13 13:56:04.669882] 81
[2025-04-13 13:56:04.669882] 9
[2025-04-13 13:56:04.669882] 1
[2025-04-13 13:56:04.677000] 36
[2025-04-13 13:56:04.677000] 100
[2025-04-13 13:56:04.677888] 169
[2025-04-13 13:56:04.677888] 225
[2025-04-13 13:56:04.677888] 256
[2025-04-13 13:56:04.677888] 196
[2025-04-13 13:56:04.685869] 144
[2025-04-13 13:56:04.685869] 64
[2025-04-13 13:56:04.685869] 4
[2025-04-13 13:56:04.685869] 16
[2025-04-13 13:56:04.685869] 100
[2025-04-13 13:56:04.685869] 196
[2025-04-13 13:56:04.686881] 225
[2025-04-13 13:56:04.686881] 144
[2025-04-13 13:56:04.694905] 64
[2025-04-13 13:56:04.694905] 1
[2025-04-13 13:56:04.694905] 16
[2025-04-13 13:56:04.694905] 81
[2025-04-13 13:56:04.694905] 144
[2025-04-13 13:56:04.694905] 225
[2025-04-13 13:56:04.695897] 196
[2025-04-13 13:56:04.703902] 169
[2025-04-13 13:56:04.703902] 81
[2025-04-13 13:56:04.703902] 36
[2025-04-13 13:56:04.703902] 16
[2025-04-13 13:56:04.704909] 1
[2025-04-13 13:56:04.704909] 9
[2025-04-13 13:56:04.704909] 64
[2025-04-13 13:56:04.704909] 144
[2025-04-13 13:56:04.712380] 169
[2025-04-13 13:56:04.712380] 144
[2025-04-13 13:56:04.712380] 64
[2025-04-13 13:56:04.712380] 1
[2025-04-13 13:56:04.713402] 16
[2025-04-13 13:56:04.713402] 81
[2025-04-13 13:56:04.713402] 144
[2025-04-13 13:56:04.722370] 196
[2025-04-13 13:56:04.722370] 196
[2025-04-13 13:56:04.722370] 169
[2025-04-13 13:56:04.722370] 100
[2025-04-13 13:56:04.722370] 49
[2025-04-13 13:56:04.722370] 16
[2025-04-13 13:56:04.722370] 0
[2025-04-13 13:56:04.722370] 25
[2025-04-13 13:56:04.730786] 100
[2025-04-13 13:56:04.730786] 196
[2025-04-13 13:56:04.730786] 225
[2025-04-13 13:56:04.730786] 144
[2025-04-13 13:56:04.730786] 25
[2025-04-13 13:56:04.730786] 0
[2025-04-13 13:56:04.730786] 49
[2025-04-13 13:56:04.738930] 144
[2025-04-13 13:56:04.738930] 225
[2025-04-13 13:56:04.738930] 256
[2025-04-13 13:56:04.738930] 225
[2025-04-13 13:56:04.738930] 144
[2025-04-13 13:56:04.738930] 64
[2025-04-13 13:56:04.738930] 36
[2025-04-13 13:56:04.748295] 4
[2025-04-13 13:56:04.748295] 4
[2025-04-13 13:56:04.748295] 64
[2025-04-13 13:56:04.748295] 144
[2025-04-13 13:56:04.748295] 225
[2025-04-13 13:56:04.749337] 196
[2025-04-13 13:56:04.749337] 81
[2025-04-13 13:56:04.749337] 9
[2025-04-13 13:56:04.756888] 4
[2025-04-13 13:56:04.756888] 49
[2025-04-13 13:56:04.756888] 100
[2025-04-13 13:56:04.756888] 144
[2025-04-13 13:56:04.756888] 169
[2025-04-13 13:56:04.756888] 196
[2025-04-13 13:56:04.757429] 169
[2025-04-13 13:56:04.764777] 121
[2025-04-13 13:56:04.764777] 64
[2025-04-13 13:56:04.765662] 9
[2025-04-13 13:56:04.765662] 4
[2025-04-13 13:56:04.765662] 64
[2025-04-13 13:56:04.765662] 144
[2025-04-13 13:56:04.765662] 225
[2025-04-13 13:56:04.774626] 196
[2025-04-13 13:56:04.774626] 64
[2025-04-13 13:56:04.774626] 1
[2025-04-13 13:56:04.774626] 9
[2025-04-13 13:56:04.774626] 36
[2025-04-13 13:56:04.774626] 81
[2025-04-13 13:56:04.774626] 144
[2025-04-13 13:56:04.774626] 169
[2025-04-13 13:56:04.783669] 225
[2025-04-13 13:56:04.783669] 196
[2025-04-13 13:56:04.783669] 169
[2025-04-13 13:56:04.784670] 81
[2025-04-13 13:56:04.784670] 9
[2025-04-13 13:56:04.784670] 9
[2025-04-13 13:56:04.784670] 81
[2025-04-13 13:56:04.784670] 196
[2025-04-13 13:56:04.792571] 289
[2025-04-13 13:56:04.792571] 256
[2025-04-13 13:56:04.792571] 121
[2025-04-13 13:56:04.792571] 16
[2025-04-13 13:56:04.792571] 4
[2025-04-13 13:56:04.792571] 81
[2025-04-13 13:56:04.792571] 169
[2025-04-13 13:56:04.800726] 256
[2025-04-13 13:56:04.800726] 256
[2025-04-13 13:56:04.800726] 256
[2025-04-13 13:56:04.800726] 169
[2025-04-13 13:56:04.800726] 100
[2025-04-13 13:56:04.800726] 36
[2025-04-13 13:56:04.800726] 0
[2025-04-13 13:56:04.808584] 49
[2025-04-13 13:56:04.808584] 169
[2025-04-13 13:56:04.808584] 256
[2025-04-13 13:56:04.808584] 225
[2025-04-13 13:56:04.808584] 100
[2025-04-13 13:56:04.809576] 16
[2025-04-13 13:56:04.809576] 1
[2025-04-13 13:56:04.817642] 36
[2025-04-13 13:56:04.817642] 100
[2025-04-13 13:56:04.817642] 121
[2025-04-13 13:56:04.817642] 169
[2025-04-13 13:56:04.817642] 196
[2025-04-13 13:56:04.817642] 144
[2025-04-13 13:56:04.818161] 81
[2025-04-13 13:56:04.825679] 64
[2025-04-13 13:56:04.825679] 9
[2025-04-13 13:56:04.825679] 0
[2025-04-13 13:56:04.825679] 36
[2025-04-13 13:56:04.826529] 121
[2025-04-13 13:56:04.826529] 225
[2025-04-13 13:56:04.826529] 225
[2025-04-13 13:56:04.826529] 144
[2025-04-13 13:56:04.835391] 36
[2025-04-13 13:56:04.835391] 0
[2025-04-13 13:56:04.835391] 36
[2025-04-13 13:56:04.835689] 121
[2025-04-13 13:56:04.835689] 196
[2025-04-13 13:56:04.835689] 256
[2025-04-13 13:56:04.835689] 225
[2025-04-13 13:56:04.843896] 196
[2025-04-13 13:56:04.843896] 121
[2025-04-13 13:56:04.843896] 64
[2025-04-13 13:56:04.843896] 16
[2025-04-13 13:56:04.843896] 4
[2025-04-13 13:56:04.843896] 49
[2025-04-13 13:56:04.843896] 144
[2025-04-13 13:56:04.852018] 225
[2025-04-13 13:56:04.852018] 196
[2025-04-13 13:56:04.852018] 121
[2025-04-13 13:56:04.852018] 25
[2025-04-13 13:56:04.852018] 1
[2025-04-13 13:56:04.852018] 49
[2025-04-13 13:56:04.852018] 121
[2025-04-13 13:56:04.861582] 169
[2025-04-13 13:56:04.861582] 196
[2025-04-13 13:56:04.861582] 196
[2025-04-13 13:56:04.861582] 169
[2025-04-13 13:56:04.861582] 100
[2025-04-13 13:56:04.861582] 49
[2025-04-13 13:56:04.861582] 4
[2025-04-13 13:56:04.861582] 9
[2025-04-13 13:56:04.869732] 64
[2025-04-13 13:56:04.869732] 144
[2025-04-13 13:56:04.870610] 196
[2025-04-13 13:56:04.870610] 144
[2025-04-13 13:56:04.870610] 64
[2025-04-13 13:56:04.870610] 9
[2025-04-13 13:56:04.870610] 4
[2025-04-13 13:56:04.871663] 36
[2025-04-13 13:56:04.877587] 100
[2025-04-13 13:56:04.878587] 144
[2025-04-13 13:56:04.878587] 196
[2025-04-13 13:56:04.878587] 196
[2025-04-13 13:56:04.878587] 169
[2025-04-13 13:56:04.878587] 121
[2025-04-13 13:56:04.886612] 36
[2025-04-13 13:56:04.886612] 1
[2025-04-13 13:56:04.886612] 16
[2025-04-13 13:56:04.886612] 100
[2025-04-13 13:56:04.887589] 196
[2025-04-13 13:56:04.887589] 225
[2025-04-13 13:56:04.887589] 144
[2025-04-13 13:56:04.895681] 49
[2025-04-13 13:56:04.895681] 1
[2025-04-13 13:56:04.895681] 9
[2025-04-13 13:56:04.895681] 64
[2025-04-13 13:56:04.895681] 144
[2025-04-13 13:56:04.895681] 196
[2025-04-13 13:56:04.895681] 256
[2025-04-13 13:56:04.896713] 196
[2025-04-13 13:56:04.904680] 121
[2025-04-13 13:56:04.904680] 49
[2025-04-13 13:56:04.904680] 16
[2025-04-13 13:56:04.904680] 0
[2025-04-13 13:56:04.904680] 16
[2025-04-13 13:56:04.904680] 81
[2025-04-13 13:56:04.904680] 144
[2025-04-13 13:56:04.913109] 169
[2025-04-13 13:56:04.913109] 144
[2025-04-13 13:56:04.913109] 36
[2025-04-13 13:56:04.913109] 0
[2025-04-13 13:56:04.913109] 36
[2025-04-13 13:56:04.913109] 121
[2025-04-13 13:56:04.913109] 144
[2025-04-13 13:56:04.913109] 196
[2025-04-13 13:56:04.922262] 169
[2025-04-13 13:56:04.922262] 121
[2025-04-13 13:56:04.922262] 100
[2025-04-13 13:56:04.922262] 81
[2025-04-13 13:56:04.922262] 25
[2025-04-13 13:56:04.922262] 0
[2025-04-13 13:56:04.922262] 36
[2025-04-13 13:56:04.930258] 144
[2025-04-13 13:56:04.930258] 225
[2025-04-13 13:56:04.931153] 289
[2025-04-13 13:56:04.931153] 144
[2025-04-13 13:56:04.931153] 25
[2025-04-13 13:56:04.931153] 9
[2025-04-13 13:56:04.931153] 100
[2025-04-13 13:56:04.939003] 196
[2025-04-13 13:56:04.939003] 225
[2025-04-13 13:56:04.939003] 169
[2025-04-13 13:56:04.939003] 121
[2025-04-13 13:56:04.939003] 100
[2025-04-13 13:56:04.939003] 64
[2025-04-13 13:56:04.939003] 49
[2025-04-13 13:56:04.947003] 16
[2025-04-13 13:56:04.947003] 1
[2025-04-13 13:56:04.947003] 64
[2025-04-13 13:56:04.947003] 169
[2025-04-13 13:56:04.947003] 225
[2025-04-13 13:56:04.947003] 196
[2025-04-13 13:56:04.947003] 81
[2025-04-13 13:56:04.947999] 9
[2025-04-13 13:56:04.955935] 4
[2025-04-13 13:56:04.955935] 36
[2025-04-13 13:56:04.955935] 100
[2025-04-13 13:56:04.955935] 169
[2025-04-13 13:56:04.955935] 225
[2025-04-13 13:56:04.955935] 256
[2025-04-13 13:56:04.955935] 196
[2025-04-13 13:56:04.964541] 144
[2025-04-13 13:56:04.965463] 64
[2025-04-13 13:56:04.965463] 4
[2025-04-13 13:56:04.965463] 16
[2025-04-13 13:56:04.965463] 100
[2025-04-13 13:56:04.965463] 196
[2025-04-13 13:56:04.965463] 225
[2025-04-13 13:56:04.973807] 169
[2025-04-13 13:56:04.973807] 49
[2025-04-13 13:56:04.973807] 4
[2025-04-13 13:56:04.973807] 9
[2025-04-13 13:56:04.973807] 49
[2025-04-13 13:56:04.973807] 100
[2025-04-13 13:56:04.973807] 169
[2025-04-13 13:56:04.981819] 169
[2025-04-13 13:56:04.981819] 169
[2025-04-13 13:56:04.981819] 121
[2025-04-13 13:56:04.981819] 100
[2025-04-13 13:56:04.981819] 49
[2025-04-13 13:56:04.981819] 4
[2025-04-13 13:56:04.982829] 16
[2025-04-13 13:56:04.982829] 100
[2025-04-13 13:56:04.990820] 196
[2025-04-13 13:56:04.990820] 225
[2025-04-13 13:56:04.990820] 144
[2025-04-13 13:56:04.991812] 36
[2025-04-13 13:56:04.991812] 0
[2025-04-13 13:56:04.991812] 25
[2025-04-13 13:56:04.991812] 81
[2025-04-13 13:56:04.999177] 144
[2025-04-13 13:56:04.999177] 196
[2025-04-13 13:56:04.999177] 196
[2025-04-13 13:56:05.000210] 196
[2025-04-13 13:56:05.000210] 121
[2025-04-13 13:56:05.000210] 64
[2025-04-13 13:56:05.000210] 16
[2025-04-13 13:56:05.008185] 4
[2025-04-13 13:56:05.008185] 49
[2025-04-13 13:56:05.008185] 144
[2025-04-13 13:56:05.008185] 225
[2025-04-13 13:56:05.008185] 225
[2025-04-13 13:56:05.008185] 121
[2025-04-13 13:56:05.008185] 25
[2025-04-13 13:56:05.016610] 0
[2025-04-13 13:56:05.016610] 36
[2025-04-13 13:56:05.016610] 100
[2025-04-13 13:56:05.016610] 169
[2025-04-13 13:56:05.016610] 256
[2025-04-13 13:56:05.016610] 225
[2025-04-13 13:56:05.016610] 196
[2025-04-13 13:56:05.025542] 121
[2025-04-13 13:56:05.026550] 64
[2025-04-13 13:56:05.026550] 4
[2025-04-13 13:56:05.026550] 1
[2025-04-13 13:56:05.026550] 36
[2025-04-13 13:56:05.026550] 121
[2025-04-13 13:56:05.026550] 196
[2025-04-13 13:56:05.026550] 196
[2025-04-13 13:56:05.034535] 121
[2025-04-13 13:56:05.034535] 25
[2025-04-13 13:56:05.034535] 1
[2025-04-13 13:56:05.034535] 49
[2025-04-13 13:56:05.034535] 144
[2025-04-13 13:56:05.034535] 225
[2025-04-13 13:56:05.034535] 256
[2025-04-13 13:56:05.043099] 225
[2025-04-13 13:56:05.043099] 121
[2025-04-13 13:56:05.043099] 64
[2025-04-13 13:56:05.043099] 36
[2025-04-13 13:56:05.043099] 4
[2025-04-13 13:56:05.043099] 4
[2025-04-13 13:56:05.043099] 81
[2025-04-13 13:56:05.043099] 169
[2025-04-13 13:56:05.052166] 225
[2025-04-13 13:56:05.052166] 169
[2025-04-13 13:56:05.052166] 81
[2025-04-13 13:56:05.052166] 9
[2025-04-13 13:56:05.052166] 9
[2025-04-13 13:56:05.052166] 64
[2025-04-13 13:56:05.052166] 121
[2025-04-13 13:56:05.060115] 144
[2025-04-13 13:56:05.060115] 196
[2025-04-13 13:56:05.061103] 169
[2025-04-13 13:56:05.061103] 144
[2025-04-13 13:56:05.061103] 100
[2025-04-13 13:56:05.061103] 49
[2025-04-13 13:56:05.061103] 4
[2025-04-13 13:56:05.061103] 4
[2025-04-13 13:56:05.069919] 64
[2025-04-13 13:56:05.069919] 144
[2025-04-13 13:56:05.070436] 225
[2025-04-13 13:56:05.070436] 169
[2025-04-13 13:56:05.070436] 64
[2025-04-13 13:56:05.070436] 4
[2025-04-13 13:56:05.070436] 16
[2025-04-13 13:56:05.078135] 49
[2025-04-13 13:56:05.078135] 100
[2025-04-13 13:56:05.078135] 169
[2025-04-13 13:56:05.078135] 196
[2025-04-13 13:56:05.078135] 196
[2025-04-13 13:56:05.078135] 144
[2025-04-13 13:56:05.078135] 81
[2025-04-13 13:56:05.086133] 49
[2025-04-13 13:56:05.086133] 1
[2025-04-13 13:56:05.086133] 16
[2025-04-13 13:56:05.087127] 100
[2025-04-13 13:56:05.087127] 196
[2025-04-13 13:56:05.087127] 225
[2025-04-13 13:56:05.087127] 169
[2025-04-13 13:56:05.095220] 49
[2025-04-13 13:56:05.095220] 1
[2025-04-13 13:56:05.095220] 16
[2025-04-13 13:56:05.095220] 100
[2025-04-13 13:56:05.095220] 196
[2025-04-13 13:56:05.095220] 225
[2025-04-13 13:56:05.095220] 225
[2025-04-13 13:56:05.103227] 169
[2025-04-13 13:56:05.103227] 100
[2025-04-13 13:56:05.103227] 64
[2025-04-13 13:56:05.103227] 16
[2025-04-13 13:56:05.103227] 0
[2025-04-13 13:56:05.103227] 36
[2025-04-13 13:56:05.103227] 121
[2025-04-13 13:56:05.103227] 196
[2025-04-13 13:56:05.112785] 196
[2025-04-13 13:56:05.112785] 121
[2025-04-13 13:56:05.112785] 36
[2025-04-13 13:56:05.112785] 0
[2025-04-13 13:56:05.112785] 25
[2025-04-13 13:56:05.113324] 100
[2025-04-13 13:56:05.113324] 144
[2025-04-13 13:56:05.120771] 196
[2025-04-13 13:56:05.121624] 196
[2025-04-13 13:56:05.121624] 169
[2025-04-13 13:56:05.121624] 169
[2025-04-13 13:56:05.121624] 121
[2025-04-13 13:56:05.121624] 36
[2025-04-13 13:56:05.121624] 1
[2025-04-13 13:56:05.129768] 64
[2025-04-13 13:56:05.129768] 196
[2025-04-13 13:56:05.129768] 256
[2025-04-13 13:56:05.129768] 225
[2025-04-13 13:56:05.129768] 100
[2025-04-13 13:56:05.129768] 9
[2025-04-13 13:56:05.129768] 9
[2025-04-13 13:56:05.137869] 64
[2025-04-13 13:56:05.137869] 169
[2025-04-13 13:56:05.137869] 225
[2025-04-13 13:56:05.137869] 225
[2025-04-13 13:56:05.137869] 169
[2025-04-13 13:56:05.137869] 121
[2025-04-13 13:56:05.137869] 64
[2025-04-13 13:56:05.146226] 25
[2025-04-13 13:56:05.146226] 0
[2025-04-13 13:56:05.147084] 16
[2025-04-13 13:56:05.147084] 100
[2025-04-13 13:56:05.147084] 169
[2025-04-13 13:56:05.147084] 196
[2025-04-13 13:56:05.147084] 144
[2025-04-13 13:56:05.155083] 49
[2025-04-13 13:56:05.155083] 4
[2025-04-13 13:56:05.155083] 16
[2025-04-13 13:56:05.155083] 64
[2025-04-13 13:56:05.155083] 121
[2025-04-13 13:56:05.155083] 169
[2025-04-13 13:56:05.155083] 225
[2025-04-13 13:56:05.155083] 225
[2025-04-13 13:56:05.164225] 144
[2025-04-13 13:56:05.164225] 81
[2025-04-13 13:56:05.164225] 36
[2025-04-13 13:56:05.164225] 0
[2025-04-13 13:56:05.164225] 25
[2025-04-13 13:56:05.164225] 100
[2025-04-13 13:56:05.164225] 196
[2025-04-13 13:56:05.172709] 196
[2025-04-13 13:56:05.172709] 144
[2025-04-13 13:56:05.172709] 49
[2025-04-13 13:56:05.172709] 1
[2025-04-13 13:56:05.172709] 25
[2025-04-13 13:56:05.172709] 81
[2025-04-13 13:56:05.173236] 121
[2025-04-13 13:56:05.182048] 169
[2025-04-13 13:56:05.182048] 196
[2025-04-13 13:56:05.182048] 144
[2025-04-13 13:56:05.182048] 121
[2025-04-13 13:56:05.182048] 81
[2025-04-13 13:56:05.182048] 36
[2025-04-13 13:56:05.182048] 0
[2025-04-13 13:56:05.182048] 25
[2025-04-13 13:56:05.190061] 121
[2025-04-13 13:56:05.190061] 169
[2025-04-13 13:56:05.190061] 196
[2025-04-13 13:56:05.190061] 121
[2025-04-13 13:56:05.190061] 25
[2025-04-13 13:56:05.190061] 0
[2025-04-13 13:56:05.191053] 16
[2025-04-13 13:56:05.198850] 64
[2025-04-13 13:56:05.198850] 144
[2025-04-13 13:56:05.198850] 196
[2025-04-13 13:56:05.198850] 225
[2025-04-13 13:56:05.198850] 169
[2025-04-13 13:56:05.198850] 121
[2025-04-13 13:56:05.198850] 81
[2025-04-13 13:56:05.207246] 16
[2025-04-13 13:56:05.207246] 4
[2025-04-13 13:56:05.207246] 64
[2025-04-13 13:56:05.207246] 169
[2025-04-13 13:56:05.207246] 225
[2025-04-13 13:56:05.207246] 169
[2025-04-13 13:56:05.207246] 100
[2025-04-13 13:56:05.215349] 9
[2025-04-13 13:56:05.215349] 4
[2025-04-13 13:56:05.215349] 49
[2025-04-13 13:56:05.215349] 144
[2025-04-13 13:56:05.215349] 196
[2025-04-13 13:56:05.215349] 225
[2025-04-13 13:56:05.215349] 225
[2025-04-13 13:56:05.223560] 144
[2025-04-13 13:56:05.223560] 100
[2025-04-13 13:56:05.223560] 36
[2025-04-13 13:56:05.223560] 1
[2025-04-13 13:56:05.224569] 25
[2025-04-13 13:56:05.224569] 100
[2025-04-13 13:56:05.224569] 196
[2025-04-13 13:56:05.224569] 289
[2025-04-13 13:56:05.233321] 225
[2025-04-13 13:56:05.233321] 81
[2025-04-13 13:56:05.233321] 0
[2025-04-13 13:56:05.233321] 49
[2025-04-13 13:56:05.233321] 121
[2025-04-13 13:56:05.233321] 169
[2025-04-13 13:56:05.233321] 169
[2025-04-13 13:56:05.241341] 169
[2025-04-13 13:56:05.241341] 169
[2025-04-13 13:56:05.241341] 121
[2025-04-13 13:56:05.242333] 81
[2025-04-13 13:56:05.242333] 49
[2025-04-13 13:56:05.242333] 4
[2025-04-13 13:56:05.242333] 9
[2025-04-13 13:56:05.242333] 81
[2025-04-13 13:56:05.251395] 225
[2025-04-13 13:56:05.251395] 256
[2025-04-13 13:56:05.251395] 196
[2025-04-13 13:56:05.251395] 64
[2025-04-13 13:56:05.251395] 1
[2025-04-13 13:56:05.251395] 25
[2025-04-13 13:56:05.251395] 81
[2025-04-13 13:56:05.259113] 169
[2025-04-13 13:56:05.259113] 225
[2025-04-13 13:56:05.259113] 256
[2025-04-13 13:56:05.260108] 225
[2025-04-13 13:56:05.260108] 144
[2025-04-13 13:56:05.260108] 81
[2025-04-13 13:56:05.260108] 25
[2025-04-13 13:56:05.267113] 0
[2025-04-13 13:56:05.268123] 36
[2025-04-13 13:56:05.268123] 121
[2025-04-13 13:56:05.268123] 225
[2025-04-13 13:56:05.268123] 256
[2025-04-13 13:56:05.268123] 144
[2025-04-13 13:56:05.268123] 36
[2025-04-13 13:56:05.276368] 1
[2025-04-13 13:56:05.276368] 16
[2025-04-13 13:56:05.276368] 100
[2025-04-13 13:56:05.276368] 169
[2025-04-13 13:56:05.276368] 225
[2025-04-13 13:56:05.276368] 225
[2025-04-13 13:56:05.276368] 169
[2025-04-13 13:56:05.284351] 121
[2025-04-13 13:56:05.284351] 64
[2025-04-13 13:56:05.284351] 9
[2025-04-13 13:56:05.284351] 4
[2025-04-13 13:56:05.284351] 64
[2025-04-13 13:56:05.284351] 144
[2025-04-13 13:56:05.285336] 225
[2025-04-13 13:56:05.285336] 196
[2025-04-13 13:56:05.294314] 81
[2025-04-13 13:56:05.294314] 9
[2025-04-13 13:56:05.294314] 4
[2025-04-13 13:56:05.294314] 36
[2025-04-13 13:56:05.294314] 81
[2025-04-13 13:56:05.294314] 144
[2025-04-13 13:56:05.294314] 196
[2025-04-13 13:56:05.303625] 225
[2025-04-13 13:56:05.303625] 196
[2025-04-13 13:56:05.303625] 144
[2025-04-13 13:56:05.303625] 64
[2025-04-13 13:56:05.303625] 9
[2025-04-13 13:56:05.303625] 9
[2025-04-13 13:56:05.303625] 81
[2025-04-13 13:56:05.303625] 169
[2025-04-13 13:56:05.311772] 196
[2025-04-13 13:56:05.311772] 169
[2025-04-13 13:56:05.311772] 81
[2025-04-13 13:56:05.311772] 16
[2025-04-13 13:56:05.311772] 4
[2025-04-13 13:56:05.311772] 49
[2025-04-13 13:56:05.311772] 100
[2025-04-13 13:56:05.319763] 169
[2025-04-13 13:56:05.319763] 225
[2025-04-13 13:56:05.320663] 225
[2025-04-13 13:56:05.320663] 196
[2025-04-13 13:56:05.320663] 100
[2025-04-13 13:56:05.320663] 49
[2025-04-13 13:56:05.320663] 4
[2025-04-13 13:56:05.320663] 16
[2025-04-13 13:56:05.329838] 100
[2025-04-13 13:56:05.329838] 225
[2025-04-13 13:56:05.329838] 256
[2025-04-13 13:56:05.329838] 169
[2025-04-13 13:56:05.329838] 100
[2025-04-13 13:56:05.329838] 4
[2025-04-13 13:56:05.329838] 9
[2025-04-13 13:56:05.336882] 64
[2025-04-13 13:56:05.336882] 144
[2025-04-13 13:56:05.337861] 196
[2025-04-13 13:56:05.337861] 196
[2025-04-13 13:56:05.337861] 196
[2025-04-13 13:56:05.337861] 169
[2025-04-13 13:56:05.344846] 121
[2025-04-13 13:56:05.345846] 49
[2025-04-13 13:56:05.345846] 1
[2025-04-13 13:56:05.345846] 16
[2025-04-13 13:56:05.345846] 100
[2025-04-13 13:56:05.345846] 196
[2025-04-13 13:56:05.345846] 225
[2025-04-13 13:56:05.345846] 169
[2025-04-13 13:56:05.354290] 81
[2025-04-13 13:56:05.354290] 9
[2025-04-13 13:56:05.355296] 9
[2025-04-13 13:56:05.355296] 100
[2025-04-13 13:56:05.355296] 225
[2025-04-13 13:56:05.355296] 324
[2025-04-13 13:56:05.355296] 324
[2025-04-13 13:56:05.363305] 225
[2025-04-13 13:56:05.363305] 121
[2025-04-13 13:56:05.363305] 49
[2025-04-13 13:56:05.363305] 9
[2025-04-13 13:56:05.363305] 4
[2025-04-13 13:56:05.363305] 36
[2025-04-13 13:56:05.363305] 121
[2025-04-13 13:56:05.363305] 169
[2025-04-13 13:56:05.372753] 225
[2025-04-13 13:56:05.372753] 121
[2025-04-13 13:56:05.372753] 25
[2025-04-13 13:56:05.372753] 0
[2025-04-13 13:56:05.372753] 36
[2025-04-13 13:56:05.372753] 81
[2025-04-13 13:56:05.372753] 121
[2025-04-13 13:56:05.380543] 144
[2025-04-13 13:56:05.380543] 144
[2025-04-13 13:56:05.381413] 144
[2025-04-13 13:56:05.381413] 121
[2025-04-13 13:56:05.381413] 81
[2025-04-13 13:56:05.381413] 25
[2025-04-13 13:56:05.381413] 0
[2025-04-13 13:56:05.389587] 25
[2025-04-13 13:56:05.389587] 121
[2025-04-13 13:56:05.389587] 225
[2025-04-13 13:56:05.389587] 196
[2025-04-13 13:56:05.390430] 100
[2025-04-13 13:56:05.390430] 36
[2025-04-13 13:56:05.390430] 0
[2025-04-13 13:56:05.390430] 36
[2025-04-13 13:56:05.397365] 121
[2025-04-13 13:56:05.397365] 169
[2025-04-13 13:56:05.397365] 225
[2025-04-13 13:56:05.397365] 225
[2025-04-13 13:56:05.398404] 169
[2025-04-13 13:56:05.398404] 121
[2025-04-13 13:56:05.406371] 49
[2025-04-13 13:56:05.406371] 4
[2025-04-13 13:56:05.407371] 9
[2025-04-13 13:56:05.407371] 81
[2025-04-13 13:56:05.407371] 169
[2025-04-13 13:56:05.407371] 196
[2025-04-13 13:56:05.407371] 169
[2025-04-13 13:56:05.407371] 81
[2025-04-13 13:56:05.415608] 4
[2025-04-13 13:56:05.415608] 16
[2025-04-13 13:56:05.415608] 81
[2025-04-13 13:56:05.415608] 144
[2025-04-13 13:56:05.415608] 169
[2025-04-13 13:56:05.415608] 169
[2025-04-13 13:56:05.415608] 144
[2025-04-13 13:56:05.424480] 121
[2025-04-13 13:56:05.424480] 81
[2025-04-13 13:56:05.424480] 49
[2025-04-13 13:56:05.424480] 4
[2025-04-13 13:56:05.425571] 9
[2025-04-13 13:56:05.425571] 81
[2025-04-13 13:56:05.425571] 169
[2025-04-13 13:56:05.425571] 225
[2025-04-13 13:56:05.433481] 169
[2025-04-13 13:56:05.433481] 64
[2025-04-13 13:56:05.433481] 4
[2025-04-13 13:56:05.433481] 9
[2025-04-13 13:56:05.433481] 64
[2025-04-13 13:56:05.433481] 144
[2025-04-13 13:56:05.434481] 196
[2025-04-13 13:56:05.441762] 256
[2025-04-13 13:56:05.441762] 225
[2025-04-13 13:56:05.441762] 144
[2025-04-13 13:56:05.442799] 100
[2025-04-13 13:56:05.442799] 36
[2025-04-13 13:56:05.442799] 0
[2025-04-13 13:56:05.442799] 36
[2025-04-13 13:56:05.442799] 121
[2025-04-13 13:56:05.450677] 225
[2025-04-13 13:56:05.451566] 225
[2025-04-13 13:56:05.451566] 169
[2025-04-13 13:56:05.451566] 49
[2025-04-13 13:56:05.451566] 0
[2025-04-13 13:56:05.451566] 25
[2025-04-13 13:56:05.451566] 100
[2025-04-13 13:56:05.458667] 144
[2025-04-13 13:56:05.458667] 196
[2025-04-13 13:56:05.458667] 196
[2025-04-13 13:56:05.458667] 169
[2025-04-13 13:56:05.458667] 144
[2025-04-13 13:56:05.458667] 81
[2025-04-13 13:56:05.458667] 16
[2025-04-13 13:56:05.467184] 0
[2025-04-13 13:56:05.468184] 36
[2025-04-13 13:56:05.468184] 100
[2025-04-13 13:56:05.468184] 196
[2025-04-13 13:56:05.468184] 225
[2025-04-13 13:56:05.468184] 196
[2025-04-13 13:56:05.468184] 64
[2025-04-13 13:56:05.476185] 0
[2025-04-13 13:56:05.476185] 49
[2025-04-13 13:56:05.476185] 144
[2025-04-13 13:56:05.476185] 256
[2025-04-13 13:56:05.477201] 289
[2025-04-13 13:56:05.477201] 225
[2025-04-13 13:56:05.477201] 169
[2025-04-13 13:56:05.484133] 100
[2025-04-13 13:56:05.485065] 49
[2025-04-13 13:56:05.485065] 9
[2025-04-13 13:56:05.485065] 4
[2025-04-13 13:56:05.485065] 49
[2025-04-13 13:56:05.485065] 144
[2025-04-13 13:56:05.485065] 225
[2025-04-13 13:56:05.493205] 225
[2025-04-13 13:56:05.493205] 121
[2025-04-13 13:56:05.493205] 16
[2025-04-13 13:56:05.493205] 1
[2025-04-13 13:56:05.493205] 49
[2025-04-13 13:56:05.493205] 100
[2025-04-13 13:56:05.493205] 169
[2025-04-13 13:56:05.493205] 196
[2025-04-13 13:56:05.502700] 225
[2025-04-13 13:56:05.502700] 169
[2025-04-13 13:56:05.502700] 100
[2025-04-13 13:56:05.502700] 49
[2025-04-13 13:56:05.502700] 4
[2025-04-13 13:56:05.502700] 9
[2025-04-13 13:56:05.502700] 64
[2025-04-13 13:56:05.511712] 144
[2025-04-13 13:56:05.511712] 225
[2025-04-13 13:56:05.511712] 169
[2025-04-13 13:56:05.511712] 64
[2025-04-13 13:56:05.511712] 4
[2025-04-13 13:56:05.512759] 9
[2025-04-13 13:56:05.512759] 49
[2025-04-13 13:56:05.512759] 100
[2025-04-13 13:56:05.520476] 169
[2025-04-13 13:56:05.520476] 225
[2025-04-13 13:56:05.520476] 196
[2025-04-13 13:56:05.520476] 169
[2025-04-13 13:56:05.520476] 121
[2025-04-13 13:56:05.520476] 64
[2025-04-13 13:56:05.520476] 1
[2025-04-13 13:56:05.528701] 25
[2025-04-13 13:56:05.528701] 100
[2025-04-13 13:56:05.528701] 196
[2025-04-13 13:56:05.528701] 225
[2025-04-13 13:56:05.529636] 169
[2025-04-13 13:56:05.529636] 49
[2025-04-13 13:56:05.529636] 4
[2025-04-13 13:56:05.536621] 9
[2025-04-13 13:56:05.536621] 81
[2025-04-13 13:56:05.536621] 144
[2025-04-13 13:56:05.536621] 196
[2025-04-13 13:56:05.537620] 256
[2025-04-13 13:56:05.537620] 196
[2025-04-13 13:56:05.537620] 144
[2025-04-13 13:56:05.545732] 100
[2025-04-13 13:56:05.545732] 36
[2025-04-13 13:56:05.545732] 0
[2025-04-13 13:56:05.545732] 36
[2025-04-13 13:56:05.545732] 144
[2025-04-13 13:56:05.545732] 289
[2025-04-13 13:56:05.545732] 289
[2025-04-13 13:56:05.553954] 169
[2025-04-13 13:56:05.553954] 49
[2025-04-13 13:56:05.553954] 0
[2025-04-13 13:56:05.553954] 36
[2025-04-13 13:56:05.553954] 100
[2025-04-13 13:56:05.553954] 196
[2025-04-13 13:56:05.553954] 225
[2025-04-13 13:56:05.562961] 256
[2025-04-13 13:56:05.562961] 196
[2025-04-13 13:56:05.562961] 121
[2025-04-13 13:56:05.562961] 64
[2025-04-13 13:56:05.562961] 16
[2025-04-13 13:56:05.562961] 0
[2025-04-13 13:56:05.563853] 36
[2025-04-13 13:56:05.563853] 121
[2025-04-13 13:56:05.571308] 225
[2025-04-13 13:56:05.571308] 289
[2025-04-13 13:56:05.571308] 169
[2025-04-13 13:56:05.571308] 36
[2025-04-13 13:56:05.572197] 4
[2025-04-13 13:56:05.572197] 100
[2025-04-13 13:56:05.572197] 169
[2025-04-13 13:56:05.579286] 256
[2025-04-13 13:56:05.579286] 196
[2025-04-13 13:56:05.579286] 196
[2025-04-13 13:56:05.580276] 169
[2025-04-13 13:56:05.580276] 100
[2025-04-13 13:56:05.580276] 49
[2025-04-13 13:56:05.580276] 4
[2025-04-13 13:56:05.589771] 9
[2025-04-13 13:56:05.589771] 81
[2025-04-13 13:56:05.589771] 196
[2025-04-13 13:56:05.589771] 256
[2025-04-13 13:56:05.589771] 225
[2025-04-13 13:56:05.589771] 100
[2025-04-13 13:56:05.589771] 16
[2025-04-13 13:56:05.596173] 9
[2025-04-13 13:56:05.596173] 64
[2025-04-13 13:56:05.597163] 121
[2025-04-13 13:56:05.597163] 196
[2025-04-13 13:56:05.597163] 225
[2025-04-13 13:56:05.597163] 196
[2025-04-13 13:56:05.597163] 144
[2025-04-13 13:56:05.605122] 100
[2025-04-13 13:56:05.605122] 49
[2025-04-13 13:56:05.605122] 4
[2025-04-13 13:56:05.606149] 9
[2025-04-13 13:56:05.606149] 81
[2025-04-13 13:56:05.606149] 169
[2025-04-13 13:56:05.606149] 225
[2025-04-13 13:56:05.606149] 169
[2025-04-13 13:56:05.614570] 49
[2025-04-13 13:56:05.614570] 4
[2025-04-13 13:56:05.614570] 16
[2025-04-13 13:56:05.614570] 100
[2025-04-13 13:56:05.614570] 144
[2025-04-13 13:56:05.614570] 196
[2025-04-13 13:56:05.614570] 169
[2025-04-13 13:56:05.622588] 144
[2025-04-13 13:56:05.622588] 121
[2025-04-13 13:56:05.623569] 64
[2025-04-13 13:56:05.623569] 25
[2025-04-13 13:56:05.623569] 0
[2025-04-13 13:56:05.623569] 25
[2025-04-13 13:56:05.623569] 81
[2025-04-13 13:56:05.631566] 144
[2025-04-13 13:56:05.632575] 196
[2025-04-13 13:56:05.632575] 144
[2025-04-13 13:56:05.632575] 49
[2025-04-13 13:56:05.632575] 4
[2025-04-13 13:56:05.632575] 9
[2025-04-13 13:56:05.632575] 81
[2025-04-13 13:56:05.632575] 169
[2025-04-13 13:56:05.640669] 225
[2025-04-13 13:56:05.640669] 256
[2025-04-13 13:56:05.640669] 225
[2025-04-13 13:56:05.640669] 144
[2025-04-13 13:56:05.640669] 81
[2025-04-13 13:56:05.640669] 25
[2025-04-13 13:56:05.640669] 1
[2025-04-13 13:56:05.648669] 49
[2025-04-13 13:56:05.648669] 169
[2025-04-13 13:56:05.648669] 256
[2025-04-13 13:56:05.649659] 225
[2025-04-13 13:56:05.649659] 121
[2025-04-13 13:56:05.649659] 16
[2025-04-13 13:56:05.649659] 1
[2025-04-13 13:56:05.649659] 36
[2025-04-13 13:56:05.657583] 100
[2025-04-13 13:56:05.657583] 144
[2025-04-13 13:56:05.657583] 196
[2025-04-13 13:56:05.658024] 225
[2025-04-13 13:56:05.658024] 169
[2025-04-13 13:56:05.658024] 100
[2025-04-13 13:56:05.666174] 49
[2025-04-13 13:56:05.666174] 9
[2025-04-13 13:56:05.666174] 1
[2025-04-13 13:56:05.666174] 49
[2025-04-13 13:56:05.666174] 144
[2025-04-13 13:56:05.666174] 256
[2025-04-13 13:56:05.666174] 256
[2025-04-13 13:56:05.666174] 144
[2025-04-13 13:56:05.675000] 25
[2025-04-13 13:56:05.675000] 0
[2025-04-13 13:56:05.675908] 64
[2025-04-13 13:56:05.675908] 196
[2025-04-13 13:56:05.675908] 289
[2025-04-13 13:56:05.675908] 361
[2025-04-13 13:56:05.675908] 289
[2025-04-13 13:56:05.683872] 169
[2025-04-13 13:56:05.683872] 100
[2025-04-13 13:56:05.683872] 25
[2025-04-13 13:56:05.683872] 0
[2025-04-13 13:56:05.683872] 16
[2025-04-13 13:56:05.683872] 81
[2025-04-13 13:56:05.683872] 169
[2025-04-13 13:56:05.692909] 225
[2025-04-13 13:56:05.692909] 169
[2025-04-13 13:56:05.692909] 64
[2025-04-13 13:56:05.692909] 9
[2025-04-13 13:56:05.692909] 4
[2025-04-13 13:56:05.692909] 49
[2025-04-13 13:56:05.693800] 100
[2025-04-13 13:56:05.693800] 169
[2025-04-13 13:56:05.700776] 225
[2025-04-13 13:56:05.701767] 196
[2025-04-13 13:56:05.701767] 144
[2025-04-13 13:56:05.701767] 100
[2025-04-13 13:56:05.701767] 36
[2025-04-13 13:56:05.701767] 1
[2025-04-13 13:56:05.701767] 16
[2025-04-13 13:56:05.709968] 100
[2025-04-13 13:56:05.709968] 169
[2025-04-13 13:56:05.710474] 196
[2025-04-13 13:56:05.710474] 144
[2025-04-13 13:56:05.710474] 49
[2025-04-13 13:56:05.710474] 1
[2025-04-13 13:56:05.710474] 9
[2025-04-13 13:56:05.710474] 81
[2025-04-13 13:56:05.718356] 144
[2025-04-13 13:56:05.718356] 196
[2025-04-13 13:56:05.718356] 225
[2025-04-13 13:56:05.718356] 196
[2025-04-13 13:56:05.719365] 121
[2025-04-13 13:56:05.719365] 81
[2025-04-13 13:56:05.727503] 25
[2025-04-13 13:56:05.727503] 0
[2025-04-13 13:56:05.727503] 36
[2025-04-13 13:56:05.727503] 81
[2025-04-13 13:56:05.727503] 169
[2025-04-13 13:56:05.727503] 196
[2025-04-13 13:56:05.727503] 144
[2025-04-13 13:56:05.727503] 49
[2025-04-13 13:56:05.735658] 0
[2025-04-13 13:56:05.735658] 25
[2025-04-13 13:56:05.735658] 100
[2025-04-13 13:56:05.735658] 169
[2025-04-13 13:56:05.735658] 225
[2025-04-13 13:56:05.736664] 256
[2025-04-13 13:56:05.736664] 196
[2025-04-13 13:56:05.744668] 121
[2025-04-13 13:56:05.744668] 49
[2025-04-13 13:56:05.744668] 9
[2025-04-13 13:56:05.744668] 4
[2025-04-13 13:56:05.744668] 49
[2025-04-13 13:56:05.744668] 121
[2025-04-13 13:56:05.745678] 225
[2025-04-13 13:56:05.753089] 225
[2025-04-13 13:56:05.753089] 144
[2025-04-13 13:56:05.753089] 36
[2025-04-13 13:56:05.753089] 0
[2025-04-13 13:56:05.753089] 36
[2025-04-13 13:56:05.753089] 121
[2025-04-13 13:56:05.753089] 225
[2025-04-13 13:56:05.753089] 256
[2025-04-13 13:56:05.762171] 289
[2025-04-13 13:56:05.762171] 225
[2025-04-13 13:56:05.762171] 121
[2025-04-13 13:56:05.762171] 49
[2025-04-13 13:56:05.762171] 9
[2025-04-13 13:56:05.762171] 4
[2025-04-13 13:56:05.762171] 64
[2025-04-13 13:56:05.770933] 169
[2025-04-13 13:56:05.770933] 225
[2025-04-13 13:56:05.770933] 225
[2025-04-13 13:56:05.770933] 121
[2025-04-13 13:56:05.770933] 36
[2025-04-13 13:56:05.770933] 1
[2025-04-13 13:56:05.770933] 36
[2025-04-13 13:56:05.778493] 121
[2025-04-13 13:56:05.779347] 196
[2025-04-13 13:56:05.779347] 225
[2025-04-13 13:56:05.779347] 169
[2025-04-13 13:56:05.779347] 121
[2025-04-13 13:56:05.779347] 81
[2025-04-13 13:56:05.779347] 81
[2025-04-13 13:56:05.787347] 25
[2025-04-13 13:56:05.787347] 0
[2025-04-13 13:56:05.787347] 25
[2025-04-13 13:56:05.787347] 121
[2025-04-13 13:56:05.787347] 225
[2025-04-13 13:56:05.787347] 225
[2025-04-13 13:56:05.787347] 169
[2025-04-13 13:56:05.787347] 49
[2025-04-13 13:56:05.795971] 0
[2025-04-13 13:56:05.795971] 49
[2025-04-13 13:56:05.795971] 144
[2025-04-13 13:56:05.795971] 225
[2025-04-13 13:56:05.795971] 256
[2025-04-13 13:56:05.795971] 225
[2025-04-13 13:56:05.795971] 169
[2025-04-13 13:56:05.804969] 100
[2025-04-13 13:56:05.804969] 36
[2025-04-13 13:56:05.804969] 0
[2025-04-13 13:56:05.804969] 25
[2025-04-13 13:56:05.804969] 81
[2025-04-13 13:56:05.804969] 169
[2025-04-13 13:56:05.804969] 196
[2025-04-13 13:56:05.813869] 144
[2025-04-13 13:56:05.813869] 64
[2025-04-13 13:56:05.813869] 1
[2025-04-13 13:56:05.813869] 25
[2025-04-13 13:56:05.813869] 81
[2025-04-13 13:56:05.813869] 169
[2025-04-13 13:56:05.813869] 196
[2025-04-13 13:56:05.822092] 225
[2025-04-13 13:56:05.823117] 196
[2025-04-13 13:56:05.823117] 121
[2025-04-13 13:56:05.823117] 81
[2025-04-13 13:56:05.823117] 36
[2025-04-13 13:56:05.823117] 1
[2025-04-13 13:56:05.824092] 25
[2025-04-13 13:56:05.824092] 121
[2025-04-13 13:56:05.831241] 196
[2025-04-13 13:56:05.831241] 225
[2025-04-13 13:56:05.831241] 144
[2025-04-13 13:56:05.831241] 49
[2025-04-13 13:56:05.831241] 0
[2025-04-13 13:56:05.831241] 25
[2025-04-13 13:56:05.832112] 81
[2025-04-13 13:56:05.838977] 169
[2025-04-13 13:56:05.838977] 225
[2025-04-13 13:56:05.839984] 225
[2025-04-13 13:56:05.839984] 196
[2025-04-13 13:56:05.839984] 121
[2025-04-13 13:56:05.839984] 64
[2025-04-13 13:56:05.839984] 16
[2025-04-13 13:56:05.847992] 4
[2025-04-13 13:56:05.847992] 49
[2025-04-13 13:56:05.847992] 144
[2025-04-13 13:56:05.847992] 225
[2025-04-13 13:56:05.847992] 225
[2025-04-13 13:56:05.847992] 121
[2025-04-13 13:56:05.847992] 16
[2025-04-13 13:56:05.847992] 4
[2025-04-13 13:56:05.855992] 49
[2025-04-13 13:56:05.855992] 100
[2025-04-13 13:56:05.855992] 169
[2025-04-13 13:56:05.856983] 196
[2025-04-13 13:56:05.856983] 225
[2025-04-13 13:56:05.856983] 144
[2025-04-13 13:56:05.866079] 81
[2025-04-13 13:56:05.866079] 49
[2025-04-13 13:56:05.866079] 4
[2025-04-13 13:56:05.866079] 4
[2025-04-13 13:56:05.866079] 36
[2025-04-13 13:56:05.866079] 121
[2025-04-13 13:56:05.866079] 169
[2025-04-13 13:56:05.866079] 144
[2025-04-13 13:56:05.874237] 100
[2025-04-13 13:56:05.874237] 16
[2025-04-13 13:56:05.874237] 1
[2025-04-13 13:56:05.874237] 49
[2025-04-13 13:56:05.874237] 121
[2025-04-13 13:56:05.874237] 196
[2025-04-13 13:56:05.874237] 225
[2025-04-13 13:56:05.883394] 196
[2025-04-13 13:56:05.883394] 144
[2025-04-13 13:56:05.883394] 81
[2025-04-13 13:56:05.883394] 16
[2025-04-13 13:56:05.883394] 0
[2025-04-13 13:56:05.883394] 16
[2025-04-13 13:56:05.884455] 81
[2025-04-13 13:56:05.884455] 196
[2025-04-13 13:56:05.891981] 256
[2025-04-13 13:56:05.892514] 169
[2025-04-13 13:56:05.892514] 36
[2025-04-13 13:56:05.892514] 0
[2025-04-13 13:56:05.892514] 36
[2025-04-13 13:56:05.892514] 100
[2025-04-13 13:56:05.892514] 169
[2025-04-13 13:56:05.900670] 169
[2025-04-13 13:56:05.900670] 169
[2025-04-13 13:56:05.900670] 144
[2025-04-13 13:56:05.901529] 100
[2025-04-13 13:56:05.901529] 64
[2025-04-13 13:56:05.901529] 25
[2025-04-13 13:56:05.901529] 0
[2025-04-13 13:56:05.909868] 36
[2025-04-13 13:56:05.909868] 100
[2025-04-13 13:56:05.909868] 169
[2025-04-13 13:56:05.909868] 169
[2025-04-13 13:56:05.909868] 81
[2025-04-13 13:56:05.909868] 36
[2025-04-13 13:56:05.909868] 4
[2025-04-13 13:56:05.909868] 9
[2025-04-13 13:56:05.918172] 64
[2025-04-13 13:56:05.918172] 121
[2025-04-13 13:56:05.918172] 196
[2025-04-13 13:56:05.918172] 225
[2025-04-13 13:56:05.918172] 225
[2025-04-13 13:56:05.918172] 144
[2025-04-13 13:56:05.918172] 81
[2025-04-13 13:56:05.926173] 36
[2025-04-13 13:56:05.926173] 0
[2025-04-13 13:56:05.926173] 36
[2025-04-13 13:56:05.926173] 121
[2025-04-13 13:56:05.927167] 169
[2025-04-13 13:56:05.927167] 169
[2025-04-13 13:56:05.927167] 121
[2025-04-13 13:56:05.935156] 25
[2025-04-13 13:56:05.935156] 0
[2025-04-13 13:56:05.935506] 16
[2025-04-13 13:56:05.935506] 81
[2025-04-13 13:56:05.935506] 169
[2025-04-13 13:56:05.935506] 225
[2025-04-13 13:56:05.935506] 196
[2025-04-13 13:56:05.944689] 169
[2025-04-13 13:56:05.944689] 121
[2025-04-13 13:56:05.944689] 64
[2025-04-13 13:56:05.944689] 9
[2025-04-13 13:56:05.944689] 4
[2025-04-13 13:56:05.944689] 49
[2025-04-13 13:56:05.944689] 144
[2025-04-13 13:56:05.944689] 225
[2025-04-13 13:56:05.952829] 225
[2025-04-13 13:56:05.952829] 121
[2025-04-13 13:56:05.952829] 16
[2025-04-13 13:56:05.952829] 1
[2025-04-13 13:56:05.952829] 36
[2025-04-13 13:56:05.952829] 100
[2025-04-13 13:56:05.952829] 169
[2025-04-13 13:56:05.961106] 225
[2025-04-13 13:56:05.961106] 256
[2025-04-13 13:56:05.961106] 196
[2025-04-13 13:56:05.961997] 144
[2025-04-13 13:56:05.962994] 64
[2025-04-13 13:56:05.962994] 4
[2025-04-13 13:56:05.963962] 16
[2025-04-13 13:56:05.969492] 100
[2025-04-13 13:56:05.969492] 196
[2025-04-13 13:56:05.969492] 289
[2025-04-13 13:56:05.969492] 225
[2025-04-13 13:56:05.969492] 100
[2025-04-13 13:56:05.969492] 4
[2025-04-13 13:56:05.970387] 16
[2025-04-13 13:56:05.977491] 100
[2025-04-13 13:56:05.978352] 144
[2025-04-13 13:56:05.978352] 225
[2025-04-13 13:56:05.978352] 225
[2025-04-13 13:56:05.978352] 196
[2025-04-13 13:56:05.978352] 169
[2025-04-13 13:56:05.978352] 100
[2025-04-13 13:56:05.986657] 49
[2025-04-13 13:56:05.986657] 0
[2025-04-13 13:56:05.986657] 36
[2025-04-13 13:56:05.986657] 144
[2025-04-13 13:56:05.986657] 196
[2025-04-13 13:56:05.986657] 225
[2025-04-13 13:56:05.986657] 144
[2025-04-13 13:56:05.994755] 49
[2025-04-13 13:56:05.994755] 0
[2025-04-13 13:56:05.994755] 36
[2025-04-13 13:56:05.994755] 81
[2025-04-13 13:56:05.994755] 169
[2025-04-13 13:56:05.994755] 225
[2025-04-13 13:56:05.995734] 225
[2025-04-13 13:56:06.003735] 121
[2025-04-13 13:56:06.004734] 81
[2025-04-13 13:56:06.004734] 81
[2025-04-13 13:56:06.004734] 49
[2025-04-13 13:56:06.004734] 9
[2025-04-13 13:56:06.004734] 9
[2025-04-13 13:56:06.004734] 81
[2025-04-13 13:56:06.004734] 225
[2025-04-13 13:56:06.012753] 256
[2025-04-13 13:56:06.013764] 169
[2025-04-13 13:56:06.013764] 64
[2025-04-13 13:56:06.013764] 4
[2025-04-13 13:56:06.013764] 16
[2025-04-13 13:56:06.013764] 81
[2025-04-13 13:56:06.013764] 169
[2025-04-13 13:56:06.013764] 225
[2025-04-13 13:56:06.021755] 225
[2025-04-13 13:56:06.021755] 144
[2025-04-13 13:56:06.021755] 81
[2025-04-13 13:56:06.022656] 64
[2025-04-13 13:56:06.022656] 9
[2025-04-13 13:56:06.022656] 4
[2025-04-13 13:56:06.022656] 49
[2025-04-13 13:56:06.022656] 121
[2025-04-13 13:56:06.030755] 196
[2025-04-13 13:56:06.031629] 169
[2025-04-13 13:56:06.031629] 81
[2025-04-13 13:56:06.031629] 16
[2025-04-13 13:56:06.031629] 1
[2025-04-13 13:56:06.031629] 36
[2025-04-13 13:56:06.031629] 121
[2025-04-13 13:56:06.039897] 169
[2025-04-13 13:56:06.039897] 225
[2025-04-13 13:56:06.039897] 225
[2025-04-13 13:56:06.039897] 169
[2025-04-13 13:56:06.039897] 121
[2025-04-13 13:56:06.039897] 64
[2025-04-13 13:56:06.039897] 4
[2025-04-13 13:56:06.049047] 16
[2025-04-13 13:56:06.049047] 81
[2025-04-13 13:56:06.049047] 169
[2025-04-13 13:56:06.049047] 196
[2025-04-13 13:56:06.049047] 144
[2025-04-13 13:56:06.049047] 64
[2025-04-13 13:56:06.049047] 9
[2025-04-13 13:56:06.049047] 9
[2025-04-13 13:56:06.057000] 64
[2025-04-13 13:56:06.057000] 121
[2025-04-13 13:56:06.057000] 169
[2025-04-13 13:56:06.057000] 196
[2025-04-13 13:56:06.057000] 196
[2025-04-13 13:56:06.057000] 144
[2025-04-13 13:56:06.065644] 100
[2025-04-13 13:56:06.065644] 49
[2025-04-13 13:56:06.065644] 4
[2025-04-13 13:56:06.066535] 4
[2025-04-13 13:56:06.066535] 81
[2025-04-13 13:56:06.066535] 169
[2025-04-13 13:56:06.066535] 225
[2025-04-13 13:56:06.066535] 169
[2025-04-13 13:56:06.074552] 81
[2025-04-13 13:56:06.074552] 9
[2025-04-13 13:56:06.074552] 4
[2025-04-13 13:56:06.074552] 49
[2025-04-13 13:56:06.074552] 100
[2025-04-13 13:56:06.074552] 196
[2025-04-13 13:56:06.074552] 225
[2025-04-13 13:56:06.074552] 196
[2025-04-13 13:56:06.083818] 169
[2025-04-13 13:56:06.083818] 121
[2025-04-13 13:56:06.083818] 49
[2025-04-13 13:56:06.083818] 1
[2025-04-13 13:56:06.083818] 16
[2025-04-13 13:56:06.083818] 81
[2025-04-13 13:56:06.083818] 196
[2025-04-13 13:56:06.091843] 225
[2025-04-13 13:56:06.091843] 169
[2025-04-13 13:56:06.091843] 64
[2025-04-13 13:56:06.091843] 1
[2025-04-13 13:56:06.091843] 16
[2025-04-13 13:56:06.091843] 81
[2025-04-13 13:56:06.092826] 169
[2025-04-13 13:56:06.099832] 225
[2025-04-13 13:56:06.100849] 225
[2025-04-13 13:56:06.100849] 196
[2025-04-13 13:56:06.100849] 144
[2025-04-13 13:56:06.100849] 100
[2025-04-13 13:56:06.100849] 36
[2025-04-13 13:56:06.100849] 0
[2025-04-13 13:56:06.101826] 36
[2025-04-13 13:56:06.109930] 144
[2025-04-13 13:56:06.109930] 256
[2025-04-13 13:56:06.109930] 256
[2025-04-13 13:56:06.109930] 144
[2025-04-13 13:56:06.109930] 49
[2025-04-13 13:56:06.109930] 0
[2025-04-13 13:56:06.109930] 25
[2025-04-13 13:56:06.117080] 81
[2025-04-13 13:56:06.117080] 169
[2025-04-13 13:56:06.117937] 225
[2025-04-13 13:56:06.117937] 225
[2025-04-13 13:56:06.117937] 225
[2025-04-13 13:56:06.117937] 144
[2025-04-13 13:56:06.117937] 81
[2025-04-13 13:56:06.126082] 16
[2025-04-13 13:56:06.126082] 1
[2025-04-13 13:56:06.126936] 49
[2025-04-13 13:56:06.126936] 144
[2025-04-13 13:56:06.126936] 196
[2025-04-13 13:56:06.126936] 225
[2025-04-13 13:56:06.126936] 196
[2025-04-13 13:56:06.135293] 64
[2025-04-13 13:56:06.135293] 0
[2025-04-13 13:56:06.135293] 49
[2025-04-13 13:56:06.135293] 169
[2025-04-13 13:56:06.135293] 256
[2025-04-13 13:56:06.135293] 289
[2025-04-13 13:56:06.135293] 225
[2025-04-13 13:56:06.143831] 196
[2025-04-13 13:56:06.143831] 100
[2025-04-13 13:56:06.143831] 49
[2025-04-13 13:56:06.143831] 4
[2025-04-13 13:56:06.143831] 9
[2025-04-13 13:56:06.143831] 81
[2025-04-13 13:56:06.143831] 169
[2025-04-13 13:56:06.143831] 225
[2025-04-13 13:56:06.152939] 196
[2025-04-13 13:56:06.152939] 81
[2025-04-13 13:56:06.152939] 16
[2025-04-13 13:56:06.152939] 1
[2025-04-13 13:56:06.152939] 49
[2025-04-13 13:56:06.152939] 121
[2025-04-13 13:56:06.152939] 196
[2025-04-13 13:56:06.161353] 256
[2025-04-13 13:56:06.161353] 196
[2025-04-13 13:56:06.161353] 144
[2025-04-13 13:56:06.161353] 100
[2025-04-13 13:56:06.161353] 36
[2025-04-13 13:56:06.161353] 4
[2025-04-13 13:56:06.161353] 4
[2025-04-13 13:56:06.161353] 49
[2025-04-13 13:56:06.170690] 169
[2025-04-13 13:56:06.170690] 256
[2025-04-13 13:56:06.170690] 196
[2025-04-13 13:56:06.170690] 81
[2025-04-13 13:56:06.170690] 4
[2025-04-13 13:56:06.170690] 9
[2025-04-13 13:56:06.170690] 64
[2025-04-13 13:56:06.178833] 121
[2025-04-13 13:56:06.178833] 196
[2025-04-13 13:56:06.178833] 225
[2025-04-13 13:56:06.178833] 169
[2025-04-13 13:56:06.178833] 144
[2025-04-13 13:56:06.178833] 100
[2025-04-13 13:56:06.178833] 49
[2025-04-13 13:56:06.188181] 9
[2025-04-13 13:56:06.188181] 4
[2025-04-13 13:56:06.188181] 81
[2025-04-13 13:56:06.188181] 196
[2025-04-13 13:56:06.188181] 256
[2025-04-13 13:56:06.188181] 169
[2025-04-13 13:56:06.188181] 81
[2025-04-13 13:56:06.189190] 4
[2025-04-13 13:56:06.195631] 16
[2025-04-13 13:56:06.195631] 81
[2025-04-13 13:56:06.195631] 144
[2025-04-13 13:56:06.195631] 169
[2025-04-13 13:56:06.195631] 196
[2025-04-13 13:56:06.195631] 196
[2025-04-13 13:56:06.196614] 144
[2025-04-13 13:56:06.204713] 81
[2025-04-13 13:56:06.205582] 36
[2025-04-13 13:56:06.205582] 0
[2025-04-13 13:56:06.205582] 16
[2025-04-13 13:56:06.205582] 100
[2025-04-13 13:56:06.205582] 196
[2025-04-13 13:56:06.205582] 225
[2025-04-13 13:56:06.213855] 169
[2025-04-13 13:56:06.213855] 64
[2025-04-13 13:56:06.213855] 1
[2025-04-13 13:56:06.213855] 9
[2025-04-13 13:56:06.213855] 81
[2025-04-13 13:56:06.213855] 169
[2025-04-13 13:56:06.213855] 225
[2025-04-13 13:56:06.213855] 256
[2025-04-13 13:56:06.222338] 196
[2025-04-13 13:56:06.223194] 121
[2025-04-13 13:56:06.223194] 64
[2025-04-13 13:56:06.223194] 25
[2025-04-13 13:56:06.223194] 0
[2025-04-13 13:56:06.223194] 64
[2025-04-13 13:56:06.223194] 144
[2025-04-13 13:56:06.231340] 196
[2025-04-13 13:56:06.231340] 144
[2025-04-13 13:56:06.231340] 81
[2025-04-13 13:56:06.231340] 16
[2025-04-13 13:56:06.231340] 1
[2025-04-13 13:56:06.231340] 25
[2025-04-13 13:56:06.231340] 81
[2025-04-13 13:56:06.231340] 121
[2025-04-13 13:56:06.240650] 169
[2025-04-13 13:56:06.240650] 196
[2025-04-13 13:56:06.240650] 169
[2025-04-13 13:56:06.240650] 121
[2025-04-13 13:56:06.240650] 64
[2025-04-13 13:56:06.240650] 16
[2025-04-13 13:56:06.240650] 0
[2025-04-13 13:56:06.248862] 36
[2025-04-13 13:56:06.248862] 121
[2025-04-13 13:56:06.248862] 225
[2025-04-13 13:56:06.248862] 225
[2025-04-13 13:56:06.248862] 121
[2025-04-13 13:56:06.248862] 36
[2025-04-13 13:56:06.248862] 0
[2025-04-13 13:56:06.255871] 36
[2025-04-13 13:56:06.256861] 100
[2025-04-13 13:56:06.256861] 196
[2025-04-13 13:56:06.256861] 256
[2025-04-13 13:56:06.256861] 256
[2025-04-13 13:56:06.256861] 196
[2025-04-13 13:56:06.256861] 100
[2025-04-13 13:56:06.266102] 49
[2025-04-13 13:56:06.266102] 4
[2025-04-13 13:56:06.266102] 4
[2025-04-13 13:56:06.266102] 64
[2025-04-13 13:56:06.266102] 169
[2025-04-13 13:56:06.266102] 225
[2025-04-13 13:56:06.266102] 169
[2025-04-13 13:56:06.275108] 64
[2025-04-13 13:56:06.275108] 9
[2025-04-13 13:56:06.275108] 4
[2025-04-13 13:56:06.275108] 49
[2025-04-13 13:56:06.275108] 100
[2025-04-13 13:56:06.276109] 169
[2025-04-13 13:56:06.276109] 225
[2025-04-13 13:56:06.276109] 196
[2025-04-13 13:56:06.283909] 169
[2025-04-13 13:56:06.283909] 121
[2025-04-13 13:56:06.283909] 64
[2025-04-13 13:56:06.283909] 4
[2025-04-13 13:56:06.283909] 9
[2025-04-13 13:56:06.283909] 81
[2025-04-13 13:56:06.284924] 169
[2025-04-13 13:56:06.292922] 225
[2025-04-13 13:56:06.292922] 169
[2025-04-13 13:56:06.292922] 64
[2025-04-13 13:56:06.292922] 9
[2025-04-13 13:56:06.292922] 1
[2025-04-13 13:56:06.292922] 25
[2025-04-13 13:56:06.292922] 100
[2025-04-13 13:56:06.292922] 169
[2025-04-13 13:56:06.301452] 225
[2025-04-13 13:56:06.301452] 225
[2025-04-13 13:56:06.301452] 144
[2025-04-13 13:56:06.301452] 100
[2025-04-13 13:56:06.301926] 49
[2025-04-13 13:56:06.301926] 1
[2025-04-13 13:56:06.301926] 16
[2025-04-13 13:56:06.309987] 81
[2025-04-13 13:56:06.310933] 169
[2025-04-13 13:56:06.310933] 169
[2025-04-13 13:56:06.310933] 121
[2025-04-13 13:56:06.310933] 36
[2025-04-13 13:56:06.310933] 1
[2025-04-13 13:56:06.310933] 16
[2025-04-13 13:56:06.310933] 81
[2025-04-13 13:56:06.318076] 144
[2025-04-13 13:56:06.318076] 196
[2025-04-13 13:56:06.318076] 196
[2025-04-13 13:56:06.318076] 196
[2025-04-13 13:56:06.318076] 144
[2025-04-13 13:56:06.318076] 81
[2025-04-13 13:56:06.318076] 25
[2025-04-13 13:56:06.327685] 0
[2025-04-13 13:56:06.327685] 36
[2025-04-13 13:56:06.327685] 144
[2025-04-13 13:56:06.327685] 196
[2025-04-13 13:56:06.327685] 196
[2025-04-13 13:56:06.327685] 121
[2025-04-13 13:56:06.327685] 36
[2025-04-13 13:56:06.335835] 0
[2025-04-13 13:56:06.335835] 9
[2025-04-13 13:56:06.335835] 64
[2025-04-13 13:56:06.335835] 169
[2025-04-13 13:56:06.335835] 289
[2025-04-13 13:56:06.335835] 324
[2025-04-13 13:56:06.335835] 256
[2025-04-13 13:56:06.344691] 144
[2025-04-13 13:56:06.344691] 49
[2025-04-13 13:56:06.344691] 4
[2025-04-13 13:56:06.345690] 1
[2025-04-13 13:56:06.345690] 49
[2025-04-13 13:56:06.345690] 121
[2025-04-13 13:56:06.345690] 225
[2025-04-13 13:56:06.345690] 256
[2025-04-13 13:56:06.354003] 144
[2025-04-13 13:56:06.354003] 49
[2025-04-13 13:56:06.354003] 1
[2025-04-13 13:56:06.354003] 25
[2025-04-13 13:56:06.354003] 100
[2025-04-13 13:56:06.354003] 169
[2025-04-13 13:56:06.354003] 225
[2025-04-13 13:56:06.362009] 225
[2025-04-13 13:56:06.362009] 169
[2025-04-13 13:56:06.362009] 121
[2025-04-13 13:56:06.362009] 81
[2025-04-13 13:56:06.362009] 36
[2025-04-13 13:56:06.362009] 0
[2025-04-13 13:56:06.362009] 25
[2025-04-13 13:56:06.370160] 121
[2025-04-13 13:56:06.370160] 256
[2025-04-13 13:56:06.370160] 289
[2025-04-13 13:56:06.371116] 144
[2025-04-13 13:56:06.371116] 36
[2025-04-13 13:56:06.371116] 1
[2025-04-13 13:56:06.371116] 49
[2025-04-13 13:56:06.371116] 144
[2025-04-13 13:56:06.379040] 196
[2025-04-13 13:56:06.379040] 225
[2025-04-13 13:56:06.379040] 256
[2025-04-13 13:56:06.379040] 196
[2025-04-13 13:56:06.380054] 144
[2025-04-13 13:56:06.380054] 64
[2025-04-13 13:56:06.380054] 4
[2025-04-13 13:56:06.388042] 9
[2025-04-13 13:56:06.388042] 81
[2025-04-13 13:56:06.388042] 196
[2025-04-13 13:56:06.388042] 225
[2025-04-13 13:56:06.388042] 196
[2025-04-13 13:56:06.388042] 81
[2025-04-13 13:56:06.388042] 9
[2025-04-13 13:56:06.388042] 9
[2025-04-13 13:56:06.395869] 81
[2025-04-13 13:56:06.396904] 144
[2025-04-13 13:56:06.396904] 196
[2025-04-13 13:56:06.396904] 256
[2025-04-13 13:56:06.396904] 196
[2025-04-13 13:56:06.396904] 144
[2025-04-13 13:56:06.404870] 81
[2025-04-13 13:56:06.404870] 25
[2025-04-13 13:56:06.404870] 0
[2025-04-13 13:56:06.404870] 25
[2025-04-13 13:56:06.404870] 121
[2025-04-13 13:56:06.404870] 169
[2025-04-13 13:56:06.404870] 169
[2025-04-13 13:56:06.405848] 100
[2025-04-13 13:56:06.414283] 36
[2025-04-13 13:56:06.414283] 1
[2025-04-13 13:56:06.414283] 9
[2025-04-13 13:56:06.414283] 64
[2025-04-13 13:56:06.415170] 100
[2025-04-13 13:56:06.415170] 169
[2025-04-13 13:56:06.415170] 196
[2025-04-13 13:56:06.423014] 169
[2025-04-13 13:56:06.423014] 121
[2025-04-13 13:56:06.423014] 81
[2025-04-13 13:56:06.423014] 36
[2025-04-13 13:56:06.423014] 1
[2025-04-13 13:56:06.423014] 16
[2025-04-13 13:56:06.423014] 100
[2025-04-13 13:56:06.423014] 225
[2025-04-13 13:56:06.432684] 256
[2025-04-13 13:56:06.432684] 169
[2025-04-13 13:56:06.432684] 64
[2025-04-13 13:56:06.432684] 1
[2025-04-13 13:56:06.432684] 16
[2025-04-13 13:56:06.432684] 100
[2025-04-13 13:56:06.432684] 169
[2025-04-13 13:56:06.440649] 225
[2025-04-13 13:56:06.440879] 256
[2025-04-13 13:56:06.440879] 196
[2025-04-13 13:56:06.440879] 169
[2025-04-13 13:56:06.440879] 121
[2025-04-13 13:56:06.440879] 36
[2025-04-13 13:56:06.440879] 0
[2025-04-13 13:56:06.448329] 64
[2025-04-13 13:56:06.448329] 169
[2025-04-13 13:56:06.449330] 256
[2025-04-13 13:56:06.449330] 196
[2025-04-13 13:56:06.449330] 100
[2025-04-13 13:56:06.449330] 16
[2025-04-13 13:56:06.449330] 1
[2025-04-13 13:56:06.456339] 36
[2025-04-13 13:56:06.456339] 121
[2025-04-13 13:56:06.456339] 144
[2025-04-13 13:56:06.456339] 196
[2025-04-13 13:56:06.456339] 225
[2025-04-13 13:56:06.456339] 169
[2025-04-13 13:56:06.456339] 121
[2025-04-13 13:56:06.465508] 49
[2025-04-13 13:56:06.465508] 4
[2025-04-13 13:56:06.466510] 4
[2025-04-13 13:56:06.466510] 64
[2025-04-13 13:56:06.466510] 121
[2025-04-13 13:56:06.466510] 169
[2025-04-13 13:56:06.466510] 196
[2025-04-13 13:56:06.473884] 121
[2025-04-13 13:56:06.473884] 25
[2025-04-13 13:56:06.473884] 1
[2025-04-13 13:56:06.473884] 49
[2025-04-13 13:56:06.473884] 121
[2025-04-13 13:56:06.474868] 196
[2025-04-13 13:56:06.474868] 225
[2025-04-13 13:56:06.481884] 225
[2025-04-13 13:56:06.482837] 196
[2025-04-13 13:56:06.482837] 100
[2025-04-13 13:56:06.482837] 36
[2025-04-13 13:56:06.482837] 1
[2025-04-13 13:56:06.482837] 16
[2025-04-13 13:56:06.482837] 121
[2025-04-13 13:56:06.482837] 225
[2025-04-13 13:56:06.491856] 256
[2025-04-13 13:56:06.491856] 169
[2025-04-13 13:56:06.491856] 49
[2025-04-13 13:56:06.491856] 1
[2025-04-13 13:56:06.491856] 16
[2025-04-13 13:56:06.491856] 100
[2025-04-13 13:56:06.491856] 169
[2025-04-13 13:56:06.500208] 196
[2025-04-13 13:56:06.500208] 225
[2025-04-13 13:56:06.500208] 169
[2025-04-13 13:56:06.500208] 144
[2025-04-13 13:56:06.500208] 81
[2025-04-13 13:56:06.500208] 25
[2025-04-13 13:56:06.500208] 0
[2025-04-13 13:56:06.508083] 25
[2025-04-13 13:56:06.509077] 121
[2025-04-13 13:56:06.509077] 196
[2025-04-13 13:56:06.509077] 225
[2025-04-13 13:56:06.509077] 196
[2025-04-13 13:56:06.509077] 81
[2025-04-13 13:56:06.509077] 1
[2025-04-13 13:56:06.516822] 36
[2025-04-13 13:56:06.516822] 196
[2025-04-13 13:56:06.516822] 289
[2025-04-13 13:56:06.516822] 289
[2025-04-13 13:56:06.517670] 225
[2025-04-13 13:56:06.517670] 144
[2025-04-13 13:56:06.517670] 81
[2025-04-13 13:56:06.525695] 36
[2025-04-13 13:56:06.526674] 4
[2025-04-13 13:56:06.526674] 1
[2025-04-13 13:56:06.526674] 49
[2025-04-13 13:56:06.526674] 144
[2025-04-13 13:56:06.526674] 225
[2025-04-13 13:56:06.526674] 225
[2025-04-13 13:56:06.526674] 121
[2025-04-13 13:56:06.535171] 25
[2025-04-13 13:56:06.535171] 1
[2025-04-13 13:56:06.535171] 49
[2025-04-13 13:56:06.535171] 121
[2025-04-13 13:56:06.535171] 196
[2025-04-13 13:56:06.535171] 256
[2025-04-13 13:56:06.535171] 225
[2025-04-13 13:56:06.543182] 196
[2025-04-13 13:56:06.543182] 121
[2025-04-13 13:56:06.543182] 49
[2025-04-13 13:56:06.543182] 9
[2025-04-13 13:56:06.543182] 1
[2025-04-13 13:56:06.543182] 64
[2025-04-13 13:56:06.543182] 144
[2025-04-13 13:56:06.551679] 196
[2025-04-13 13:56:06.552183] 196
[2025-04-13 13:56:06.552183] 100
[2025-04-13 13:56:06.552183] 25
[2025-04-13 13:56:06.552183] 1
[2025-04-13 13:56:06.552183] 36
[2025-04-13 13:56:06.552183] 121
[2025-04-13 13:56:06.552183] 196
[2025-04-13 13:56:06.560669] 225
[2025-04-13 13:56:06.561660] 196
[2025-04-13 13:56:06.561660] 121
[2025-04-13 13:56:06.561660] 81
[2025-04-13 13:56:06.561660] 36
[2025-04-13 13:56:06.561660] 4
[2025-04-13 13:56:06.562665] 4
[2025-04-13 13:56:06.570517] 64
[2025-04-13 13:56:06.570517] 144
[2025-04-13 13:56:06.570517] 225
[2025-04-13 13:56:06.570517] 196
[2025-04-13 13:56:06.570517] 81
[2025-04-13 13:56:06.570517] 9
[2025-04-13 13:56:06.570517] 4
[2025-04-13 13:56:06.570517] 49
[2025-04-13 13:56:06.578180] 121
[2025-04-13 13:56:06.578180] 196
[2025-04-13 13:56:06.578180] 256
[2025-04-13 13:56:06.578180] 225
[2025-04-13 13:56:06.578180] 169
[2025-04-13 13:56:06.578180] 100
[2025-04-13 13:56:06.578180] 49
[2025-04-13 13:56:06.587162] 1
[2025-04-13 13:56:06.587162] 16
[2025-04-13 13:56:06.587162] 100
[2025-04-13 13:56:06.587162] 196
[2025-04-13 13:56:06.588152] 225
[2025-04-13 13:56:06.588152] 169
[2025-04-13 13:56:06.588152] 64
[2025-04-13 13:56:06.595497] 4
[2025-04-13 13:56:06.595497] 9
[2025-04-13 13:56:06.595497] 81
[2025-04-13 13:56:06.595497] 144
[2025-04-13 13:56:06.596356] 225
[2025-04-13 13:56:06.596356] 256
[2025-04-13 13:56:06.596356] 256
[2025-04-13 13:56:06.603561] 169
[2025-04-13 13:56:06.603561] 100
[2025-04-13 13:56:06.603561] 36
[2025-04-13 13:56:06.603561] 0
[2025-04-13 13:56:06.604585] 36
[2025-04-13 13:56:06.604585] 121
[2025-04-13 13:56:06.604585] 256
[2025-04-13 13:56:06.612590] 289
[2025-04-13 13:56:06.612590] 169
[2025-04-13 13:56:06.612590] 25
[2025-04-13 13:56:06.612590] 1
[2025-04-13 13:56:06.612590] 64
[2025-04-13 13:56:06.612590] 121
[2025-04-13 13:56:06.612590] 144
[2025-04-13 13:56:06.612590] 196
[2025-04-13 13:56:06.621583] 225
[2025-04-13 13:56:06.621583] 169
[2025-04-13 13:56:06.621583] 121
[2025-04-13 13:56:06.621583] 49
[2025-04-13 13:56:06.621583] 9
[2025-04-13 13:56:06.621583] 4
[2025-04-13 13:56:06.621583] 49
[2025-04-13 13:56:06.630269] 121
[2025-04-13 13:56:06.630269] 196
[2025-04-13 13:56:06.630269] 196
[2025-04-13 13:56:06.630269] 100
[2025-04-13 13:56:06.630269] 25
[2025-04-13 13:56:06.630269] 0
[2025-04-13 13:56:06.631218] 36
[2025-04-13 13:56:06.638324] 100
[2025-04-13 13:56:06.638324] 169
[2025-04-13 13:56:06.638324] 225
[2025-04-13 13:56:06.638324] 225
[2025-04-13 13:56:06.639217] 196
[2025-04-13 13:56:06.639217] 144
[2025-04-13 13:56:06.639217] 64
[2025-04-13 13:56:06.647195] 16
[2025-04-13 13:56:06.647195] 4
[2025-04-13 13:56:06.647195] 81
[2025-04-13 13:56:06.647195] 196
[2025-04-13 13:56:06.647195] 289
[2025-04-13 13:56:06.647195] 256
[2025-04-13 13:56:06.647195] 121
[2025-04-13 13:56:06.654883] 25
[2025-04-13 13:56:06.655883] 1
[2025-04-13 13:56:06.655883] 64
[2025-04-13 13:56:06.655883] 169
[2025-04-13 13:56:06.655883] 225
[2025-04-13 13:56:06.655883] 256
[2025-04-13 13:56:06.655883] 225
[2025-04-13 13:56:06.663902] 169
[2025-04-13 13:56:06.663902] 100
[2025-04-13 13:56:06.663902] 49
[2025-04-13 13:56:06.663902] 4
[2025-04-13 13:56:06.663902] 16
[2025-04-13 13:56:06.663902] 100
[2025-04-13 13:56:06.663902] 196
[2025-04-13 13:56:06.664886] 225
[2025-04-13 13:56:06.672895] 169
[2025-04-13 13:56:06.672895] 64
[2025-04-13 13:56:06.672895] 1
[2025-04-13 13:56:06.672895] 9
[2025-04-13 13:56:06.672895] 81
[2025-04-13 13:56:06.672895] 169
[2025-04-13 13:56:06.673885] 225
[2025-04-13 13:56:06.681332] 256
[2025-04-13 13:56:06.681332] 196
[2025-04-13 13:56:06.682354] 121
[2025-04-13 13:56:06.682354] 64
[2025-04-13 13:56:06.682354] 25
[2025-04-13 13:56:06.682354] 0
[2025-04-13 13:56:06.682354] 25
[2025-04-13 13:56:06.682354] 100
[2025-04-13 13:56:06.691017] 169
[2025-04-13 13:56:06.691017] 196
[2025-04-13 13:56:06.691017] 144
[2025-04-13 13:56:06.691017] 49
[2025-04-13 13:56:06.691017] 0
[2025-04-13 13:56:06.691017] 16
[2025-04-13 13:56:06.691017] 100
[2025-04-13 13:56:06.698598] 169
[2025-04-13 13:56:06.698598] 225
[2025-04-13 13:56:06.698598] 196
[2025-04-13 13:56:06.698598] 169
[2025-04-13 13:56:06.698598] 121
[2025-04-13 13:56:06.698598] 81
[2025-04-13 13:56:06.698598] 25
[2025-04-13 13:56:06.707496] 0
[2025-04-13 13:56:06.707496] 25
[2025-04-13 13:56:06.707496] 121
[2025-04-13 13:56:06.707496] 196
[2025-04-13 13:56:06.707496] 196
[2025-04-13 13:56:06.707496] 144
[2025-04-13 13:56:06.707496] 49
[2025-04-13 13:56:06.716340] 0
[2025-04-13 13:56:06.716340] 25
[2025-04-13 13:56:06.716340] 64
[2025-04-13 13:56:06.716340] 121
[2025-04-13 13:56:06.716340] 225
[2025-04-13 13:56:06.716340] 324
[2025-04-13 13:56:06.716340] 324
[2025-04-13 13:56:06.724750] 225
[2025-04-13 13:56:06.724750] 81
[2025-04-13 13:56:06.724750] 4
[2025-04-13 13:56:06.724750] 16
[2025-04-13 13:56:06.724750] 100
[2025-04-13 13:56:06.724750] 196
[2025-04-13 13:56:06.724750] 225
[2025-04-13 13:56:06.733900] 196
[2025-04-13 13:56:06.733900] 81
[2025-04-13 13:56:06.733900] 9
[2025-04-13 13:56:06.733900] 1
[2025-04-13 13:56:06.733900] 36
[2025-04-13 13:56:06.733900] 121
[2025-04-13 13:56:06.733900] 196
[2025-04-13 13:56:06.733900] 225
[2025-04-13 13:56:06.741788] 225
[2025-04-13 13:56:06.741788] 169
[2025-04-13 13:56:06.741788] 121
[2025-04-13 13:56:06.741788] 49
[2025-04-13 13:56:06.742756] 4
[2025-04-13 13:56:06.742756] 9
[2025-04-13 13:56:06.742756] 81
[2025-04-13 13:56:06.751659] 169
[2025-04-13 13:56:06.751659] 196
[2025-04-13 13:56:06.751659] 169
[2025-04-13 13:56:06.751659] 81
[2025-04-13 13:56:06.751659] 9
[2025-04-13 13:56:06.751659] 4
[2025-04-13 13:56:06.751659] 64
[2025-04-13 13:56:06.751659] 144
[2025-04-13 13:56:06.759681] 196
[2025-04-13 13:56:06.759681] 225
[2025-04-13 13:56:06.760692] 196
[2025-04-13 13:56:06.760692] 144
[2025-04-13 13:56:06.760692] 81
[2025-04-13 13:56:06.760692] 36
[2025-04-13 13:56:06.760692] 1
[2025-04-13 13:56:06.768843] 16
[2025-04-13 13:56:06.768843] 64
[2025-04-13 13:56:06.768843] 144
[2025-04-13 13:56:06.768843] 196
[2025-04-13 13:56:06.769885] 169
[2025-04-13 13:56:06.769885] 81
[2025-04-13 13:56:06.769885] 16
[2025-04-13 13:56:06.769885] 4
[2025-04-13 13:56:06.776401] 64
[2025-04-13 13:56:06.777263] 169
[2025-04-13 13:56:06.777263] 196
[2025-04-13 13:56:06.777263] 225
[2025-04-13 13:56:06.777263] 196
[2025-04-13 13:56:06.777263] 144
[2025-04-13 13:56:06.777263] 81
[2025-04-13 13:56:06.786261] 36
[2025-04-13 13:56:06.786261] 1
[2025-04-13 13:56:06.786261] 25
[2025-04-13 13:56:06.786261] 100
[2025-04-13 13:56:06.786261] 196
[2025-04-13 13:56:06.786261] 225
[2025-04-13 13:56:06.786261] 169
[2025-04-13 13:56:06.794884] 49
[2025-04-13 13:56:06.794884] 1
[2025-04-13 13:56:06.794884] 16
[2025-04-13 13:56:06.794884] 81
[2025-04-13 13:56:06.794884] 169
[2025-04-13 13:56:06.794884] 225
[2025-04-13 13:56:06.794884] 225
[2025-04-13 13:56:06.803285] 196
[2025-04-13 13:56:06.803285] 144
[2025-04-13 13:56:06.803285] 100
[2025-04-13 13:56:06.803285] 36
[2025-04-13 13:56:06.803285] 0
[2025-04-13 13:56:06.803285] 49
[2025-04-13 13:56:06.803285] 196
[2025-04-13 13:56:06.811279] 256
[2025-04-13 13:56:06.811279] 225
[2025-04-13 13:56:06.811279] 121
[2025-04-13 13:56:06.811279] 16
[2025-04-13 13:56:06.811279] 4
[2025-04-13 13:56:06.812136] 49
[2025-04-13 13:56:06.812136] 121
[2025-04-13 13:56:06.812136] 169
[2025-04-13 13:56:06.820842] 196
[2025-04-13 13:56:06.820842] 169
[2025-04-13 13:56:06.820842] 144
[2025-04-13 13:56:06.821718] 100
[2025-04-13 13:56:06.821718] 64
[2025-04-13 13:56:06.821718] 16
[2025-04-13 13:56:06.821718] 4
[2025-04-13 13:56:06.828842] 64
[2025-04-13 13:56:06.828842] 144
[2025-04-13 13:56:06.829733] 196
[2025-04-13 13:56:06.829733] 169
[2025-04-13 13:56:06.829733] 100
[2025-04-13 13:56:06.829733] 25
[2025-04-13 13:56:06.829733] 1
[2025-04-13 13:56:06.836872] 49
[2025-04-13 13:56:06.837876] 100
[2025-04-13 13:56:06.837876] 169
[2025-04-13 13:56:06.837876] 225
[2025-04-13 13:56:06.837876] 225
[2025-04-13 13:56:06.837876] 144
[2025-04-13 13:56:06.837876] 81
[2025-04-13 13:56:06.845959] 36
[2025-04-13 13:56:06.845959] 9
[2025-04-13 13:56:06.846935] 0
[2025-04-13 13:56:06.846935] 25
[2025-04-13 13:56:06.846935] 121
[2025-04-13 13:56:06.846935] 225
[2025-04-13 13:56:06.846935] 225
[2025-04-13 13:56:06.853932] 121
[2025-04-13 13:56:06.853932] 25
[2025-04-13 13:56:06.853932] 4
[2025-04-13 13:56:06.854931] 49
[2025-04-13 13:56:06.854931] 100
[2025-04-13 13:56:06.854931] 169
[2025-04-13 13:56:06.854931] 225
[2025-04-13 13:56:06.854931] 196
[2025-04-13 13:56:06.863918] 144
[2025-04-13 13:56:06.863918] 100
[2025-04-13 13:56:06.863918] 49
[2025-04-13 13:56:06.863918] 1
[2025-04-13 13:56:06.863918] 16
[2025-04-13 13:56:06.863918] 100
[2025-04-13 13:56:06.863918] 169
[2025-04-13 13:56:06.871889] 225
[2025-04-13 13:56:06.871889] 144
[2025-04-13 13:56:06.871889] 49
[2025-04-13 13:56:06.871889] 0
[2025-04-13 13:56:06.871889] 16
[2025-04-13 13:56:06.871889] 81
[2025-04-13 13:56:06.871889] 144
[2025-04-13 13:56:06.880890] 196
[2025-04-13 13:56:06.880890] 225
[2025-04-13 13:56:06.880890] 196
[2025-04-13 13:56:06.880890] 144
[2025-04-13 13:56:06.880890] 81
[2025-04-13 13:56:06.880890] 25
[2025-04-13 13:56:06.880890] 0
[2025-04-13 13:56:06.880890] 36
[2025-04-13 13:56:06.889195] 144
[2025-04-13 13:56:06.890186] 225
[2025-04-13 13:56:06.890186] 256
[2025-04-13 13:56:06.890186] 144
[2025-04-13 13:56:06.890186] 25
[2025-04-13 13:56:06.890186] 0
[2025-04-13 13:56:06.890186] 25
[2025-04-13 13:56:06.897323] 100
[2025-04-13 13:56:06.897323] 169
[2025-04-13 13:56:06.897323] 225
[2025-04-13 13:56:06.897323] 225
[2025-04-13 13:56:06.897323] 169
[2025-04-13 13:56:06.897323] 121
[2025-04-13 13:56:06.906068] 81
[2025-04-13 13:56:06.906068] 16
[2025-04-13 13:56:06.906068] 0
[2025-04-13 13:56:06.906068] 49
[2025-04-13 13:56:06.906068] 121
[2025-04-13 13:56:06.906068] 225
[2025-04-13 13:56:06.906068] 196
[2025-04-13 13:56:06.906068] 121
[2025-04-13 13:56:06.915219] 25
[2025-04-13 13:56:06.915219] 1
[2025-04-13 13:56:06.915219] 49
[2025-04-13 13:56:06.915219] 100
[2025-04-13 13:56:06.915219] 169
[2025-04-13 13:56:06.916074] 196
[2025-04-13 13:56:06.916074] 196
[2025-04-13 13:56:06.923888] 144
[2025-04-13 13:56:06.923888] 100
[2025-04-13 13:56:06.923888] 49
[2025-04-13 13:56:06.923888] 1
[2025-04-13 13:56:06.923888] 16
[2025-04-13 13:56:06.923888] 81
[2025-04-13 13:56:06.923888] 169
[2025-04-13 13:56:06.932266] 196
[2025-04-13 13:56:06.933129] 144
[2025-04-13 13:56:06.933129] 49
[2025-04-13 13:56:06.933129] 4
[2025-04-13 13:56:06.933129] 9
[2025-04-13 13:56:06.934126] 64
[2025-04-13 13:56:06.934126] 121
[2025-04-13 13:56:06.934126] 169
[2025-04-13 13:56:06.941138] 225
[2025-04-13 13:56:06.941138] 225
[2025-04-13 13:56:06.942129] 144
[2025-04-13 13:56:06.942129] 81
[2025-04-13 13:56:06.942129] 36
[2025-04-13 13:56:06.942129] 1
[2025-04-13 13:56:06.942129] 16
[2025-04-13 13:56:06.949339] 100
[2025-04-13 13:56:06.949339] 196
[2025-04-13 13:56:06.950333] 225
[2025-04-13 13:56:06.950333] 169
[2025-04-13 13:56:06.950333] 49
[2025-04-13 13:56:06.950333] 1
[2025-04-13 13:56:06.950333] 16
[2025-04-13 13:56:06.957928] 100
[2025-04-13 13:56:06.957928] 144
[2025-04-13 13:56:06.957928] 225
[2025-04-13 13:56:06.957928] 256
[2025-04-13 13:56:06.957928] 169
[2025-04-13 13:56:06.957928] 81
[2025-04-13 13:56:06.957928] 36
[2025-04-13 13:56:06.966744] 16
[2025-04-13 13:56:06.966744] 0
[2025-04-13 13:56:06.966744] 36
[2025-04-13 13:56:06.966744] 100
[2025-04-13 13:56:06.966744] 169
[2025-04-13 13:56:06.966744] 196
[2025-04-13 13:56:06.966744] 121
[2025-04-13 13:56:06.966744] 36
[2025-04-13 13:56:06.975768] 0
[2025-04-13 13:56:06.975768] 36
[2025-04-13 13:56:06.975768] 81
[2025-04-13 13:56:06.975768] 144
[2025-04-13 13:56:06.975768] 169
[2025-04-13 13:56:06.975768] 196
[2025-04-13 13:56:06.975768] 169
[2025-04-13 13:56:06.984475] 121
[2025-04-13 13:56:06.984475] 81
[2025-04-13 13:56:06.984475] 16
[2025-04-13 13:56:06.984475] 4
[2025-04-13 13:56:06.984475] 81
[2025-04-13 13:56:06.984934] 169
[2025-04-13 13:56:06.984934] 196
[2025-04-13 13:56:06.993934] 144
[2025-04-13 13:56:06.994951] 64
[2025-04-13 13:56:06.995934] 4
[2025-04-13 13:56:06.995934] 4
[2025-04-13 13:56:06.995934] 36
[2025-04-13 13:56:06.995934] 100
[2025-04-13 13:56:06.995934] 169
[2025-04-13 13:56:06.995934] 225
[2025-04-13 13:56:07.002073] 225
[2025-04-13 13:56:07.002073] 169
[2025-04-13 13:56:07.002073] 100
[2025-04-13 13:56:07.002073] 49
[2025-04-13 13:56:07.002073] 9
[2025-04-13 13:56:07.002073] 9
[2025-04-13 13:56:07.002073] 81
[2025-04-13 13:56:07.009976] 169
[2025-04-13 13:56:07.009976] 196
[2025-04-13 13:56:07.010984] 169
[2025-04-13 13:56:07.010984] 100
[2025-04-13 13:56:07.010984] 16
[2025-04-13 13:56:07.010984] 1
[2025-04-13 13:56:07.010984] 49
[2025-04-13 13:56:07.010984] 100
[2025-04-13 13:56:07.018404] 196
[2025-04-13 13:56:07.018404] 225
[2025-04-13 13:56:07.018404] 196
[2025-04-13 13:56:07.019384] 144
[2025-04-13 13:56:07.019384] 100
[2025-04-13 13:56:07.019384] 49
[2025-04-13 13:56:07.019384] 4
[2025-04-13 13:56:07.028405] 4
[2025-04-13 13:56:07.028405] 49
[2025-04-13 13:56:07.028405] 169
[2025-04-13 13:56:07.028405] 196
[2025-04-13 13:56:07.028405] 169
[2025-04-13 13:56:07.028405] 64
[2025-04-13 13:56:07.028405] 9
[2025-04-13 13:56:07.029392] 4
[2025-04-13 13:56:07.036721] 49
[2025-04-13 13:56:07.036721] 121
[2025-04-13 13:56:07.036721] 196
[2025-04-13 13:56:07.036721] 225
[2025-04-13 13:56:07.036721] 196
[2025-04-13 13:56:07.036721] 144
[2025-04-13 13:56:07.044427] 81
[2025-04-13 13:56:07.045431] 25
[2025-04-13 13:56:07.045431] 0
[2025-04-13 13:56:07.045431] 25
[2025-04-13 13:56:07.045431] 121
[2025-04-13 13:56:07.045431] 196
[2025-04-13 13:56:07.045431] 196
[2025-04-13 13:56:07.045431] 121
[2025-04-13 13:56:07.054425] 49
[2025-04-13 13:56:07.054425] 1
[2025-04-13 13:56:07.054425] 16
[2025-04-13 13:56:07.054425] 81
[2025-04-13 13:56:07.054425] 121
[2025-04-13 13:56:07.054425] 196
[2025-04-13 13:56:07.054425] 256
[2025-04-13 13:56:07.062910] 196
[2025-04-13 13:56:07.062910] 144
[2025-04-13 13:56:07.062910] 64
[2025-04-13 13:56:07.062910] 16
[2025-04-13 13:56:07.062910] 0
[2025-04-13 13:56:07.062910] 36
[2025-04-13 13:56:07.062910] 100
[2025-04-13 13:56:07.071050] 196
[2025-04-13 13:56:07.071050] 225
[2025-04-13 13:56:07.071050] 144
[2025-04-13 13:56:07.071050] 25
[2025-04-13 13:56:07.071905] 0
[2025-04-13 13:56:07.071905] 36
[2025-04-13 13:56:07.071905] 121
[2025-04-13 13:56:07.071905] 169
[2025-04-13 13:56:07.080767] 196
[2025-04-13 13:56:07.080767] 196
[2025-04-13 13:56:07.080767] 196
[2025-04-13 13:56:07.080767] 121
[2025-04-13 13:56:07.080767] 64
[2025-04-13 13:56:07.080767] 9
[2025-04-13 13:56:07.080767] 9
[2025-04-13 13:56:07.089778] 64
[2025-04-13 13:56:07.089778] 144
[2025-04-13 13:56:07.089778] 169
[2025-04-13 13:56:07.090774] 121
[2025-04-13 13:56:07.090774] 81
[2025-04-13 13:56:07.090774] 16
[2025-04-13 13:56:07.090774] 0
[2025-04-13 13:56:07.090774] 49
[2025-04-13 13:56:07.096913] 100
[2025-04-13 13:56:07.097774] 144
[2025-04-13 13:56:07.097774] 196
[2025-04-13 13:56:07.097774] 169
[2025-04-13 13:56:07.097774] 121
[2025-04-13 13:56:07.097774] 100
[2025-04-13 13:56:07.105735] 49
[2025-04-13 13:56:07.105735] 9
[2025-04-13 13:56:07.105735] 1
[2025-04-13 13:56:07.105735] 64
[2025-04-13 13:56:07.105735] 144
[2025-04-13 13:56:07.105735] 225
[2025-04-13 13:56:07.105735] 196
[2025-04-13 13:56:07.105735] 121
[2025-04-13 13:56:07.114741] 25
[2025-04-13 13:56:07.114741] 1
[2025-04-13 13:56:07.114741] 49
[2025-04-13 13:56:07.114741] 144
[2025-04-13 13:56:07.114741] 196
[2025-04-13 13:56:07.115775] 256
[2025-04-13 13:56:07.115775] 225
[2025-04-13 13:56:07.123610] 169
[2025-04-13 13:56:07.123891] 144
[2025-04-13 13:56:07.123891] 81
[2025-04-13 13:56:07.123891] 4
[2025-04-13 13:56:07.123891] 25
[2025-04-13 13:56:07.123891] 121
[2025-04-13 13:56:07.123891] 225
[2025-04-13 13:56:07.131486] 225
[2025-04-13 13:56:07.132502] 144
[2025-04-13 13:56:07.132502] 49
[2025-04-13 13:56:07.132502] 1
[2025-04-13 13:56:07.132502] 16
[2025-04-13 13:56:07.132502] 81
[2025-04-13 13:56:07.132502] 121
[2025-04-13 13:56:07.140493] 169
[2025-04-13 13:56:07.141486] 225
[2025-04-13 13:56:07.141486] 169
[2025-04-13 13:56:07.141486] 144
[2025-04-13 13:56:07.141486] 81
[2025-04-13 13:56:07.141486] 25
[2025-04-13 13:56:07.141486] 1
[2025-04-13 13:56:07.141486] 16
[2025-04-13 13:56:07.149514] 81
[2025-04-13 13:56:07.149514] 169
[2025-04-13 13:56:07.149514] 225
[2025-04-13 13:56:07.149514] 144
[2025-04-13 13:56:07.149514] 64
[2025-04-13 13:56:07.149514] 1
[2025-04-13 13:56:07.149514] 16
[2025-04-13 13:56:07.157693] 64
[2025-04-13 13:56:07.157693] 121
[2025-04-13 13:56:07.157693] 169
[2025-04-13 13:56:07.157693] 196
[2025-04-13 13:56:07.157693] 169
[2025-04-13 13:56:07.158738] 144
[2025-04-13 13:56:07.158738] 81
[2025-04-13 13:56:07.166045] 25
[2025-04-13 13:56:07.166045] 0
[2025-04-13 13:56:07.166934] 25
[2025-04-13 13:56:07.166934] 121
[2025-04-13 13:56:07.166934] 196
[2025-04-13 13:56:07.166934] 169
[2025-04-13 13:56:07.166934] 100
[2025-04-13 13:56:07.174319] 25
[2025-04-13 13:56:07.175175] 1
[2025-04-13 13:56:07.175175] 36
[2025-04-13 13:56:07.175175] 100
[2025-04-13 13:56:07.175175] 169
[2025-04-13 13:56:07.175175] 196
[2025-04-13 13:56:07.175175] 225
[2025-04-13 13:56:07.184173] 196
[2025-04-13 13:56:07.184173] 144
[2025-04-13 13:56:07.184173] 81
[2025-04-13 13:56:07.184173] 9
[2025-04-13 13:56:07.184173] 4
[2025-04-13 13:56:07.184173] 81
[2025-04-13 13:56:07.184173] 196
[2025-04-13 13:56:07.184173] 256
[2025-04-13 13:56:07.192850] 225
[2025-04-13 13:56:07.192850] 121
[2025-04-13 13:56:07.192850] 16
[2025-04-13 13:56:07.192850] 1
[2025-04-13 13:56:07.192850] 49
[2025-04-13 13:56:07.192850] 121
[2025-04-13 13:56:07.192850] 196
[2025-04-13 13:56:07.202065] 256
[2025-04-13 13:56:07.202065] 225
[2025-04-13 13:56:07.202065] 196
[2025-04-13 13:56:07.202927] 121
[2025-04-13 13:56:07.202927] 64
[2025-04-13 13:56:07.202927] 4
[2025-04-13 13:56:07.202927] 9
[2025-04-13 13:56:07.202927] 81
[2025-04-13 13:56:07.210676] 196
[2025-04-13 13:56:07.210676] 256
[2025-04-13 13:56:07.210676] 256
[2025-04-13 13:56:07.210676] 144
[2025-04-13 13:56:07.210676] 9
[2025-04-13 13:56:07.210676] 25
[2025-04-13 13:56:07.210676] 100
[2025-04-13 13:56:07.217966] 196
[2025-04-13 13:56:07.217966] 256
[2025-04-13 13:56:07.217966] 196
[2025-04-13 13:56:07.217966] 169
[2025-04-13 13:56:07.217966] 121
[2025-04-13 13:56:07.217966] 81
[2025-04-13 13:56:07.217966] 25
[2025-04-13 13:56:07.226823] 1
[2025-04-13 13:56:07.226823] 16
[2025-04-13 13:56:07.227822] 81
[2025-04-13 13:56:07.227822] 196
[2025-04-13 13:56:07.227822] 256
[2025-04-13 13:56:07.227822] 196
[2025-04-13 13:56:07.227822] 64
[2025-04-13 13:56:07.235759] 4
[2025-04-13 13:56:07.235759] 16
[2025-04-13 13:56:07.235759] 81
[2025-04-13 13:56:07.235759] 144
[2025-04-13 13:56:07.235759] 225
[2025-04-13 13:56:07.236642] 196
[2025-04-13 13:56:07.236642] 196
[2025-04-13 13:56:07.244755] 144
[2025-04-13 13:56:07.244755] 81
[2025-04-13 13:56:07.244755] 36
[2025-04-13 13:56:07.244755] 0
[2025-04-13 13:56:07.244755] 25
[2025-04-13 13:56:07.244755] 81
[2025-04-13 13:56:07.245642] 169
[2025-04-13 13:56:07.245642] 169
[2025-04-13 13:56:07.253343] 121
[2025-04-13 13:56:07.253343] 25
[2025-04-13 13:56:07.253343] 0
[2025-04-13 13:56:07.253343] 16
[2025-04-13 13:56:07.253343] 81
[2025-04-13 13:56:07.253343] 144
[2025-04-13 13:56:07.253343] 169
[2025-04-13 13:56:07.262964] 196
[2025-04-13 13:56:07.262964] 196
[2025-04-13 13:56:07.262964] 121
[2025-04-13 13:56:07.262964] 64
[2025-04-13 13:56:07.262964] 9
[2025-04-13 13:56:07.262964] 4
[2025-04-13 13:56:07.262964] 81
[2025-04-13 13:56:07.262964] 169
[2025-04-13 13:56:07.270384] 196
[2025-04-13 13:56:07.270384] 196
[2025-04-13 13:56:07.271383] 100
[2025-04-13 13:56:07.271383] 25
[2025-04-13 13:56:07.271383] 1
[2025-04-13 13:56:07.271383] 49
[2025-04-13 13:56:07.271383] 144
[2025-04-13 13:56:07.279383] 225
[2025-04-13 13:56:07.279383] 289
[2025-04-13 13:56:07.279383] 289
[2025-04-13 13:56:07.279383] 196
[2025-04-13 13:56:07.279383] 100
[2025-04-13 13:56:07.279383] 36
[2025-04-13 13:56:07.279383] 4
[2025-04-13 13:56:07.288101] 9
[2025-04-13 13:56:07.288101] 64
[2025-04-13 13:56:07.288101] 169
[2025-04-13 13:56:07.288101] 225
[2025-04-13 13:56:07.288101] 196
[2025-04-13 13:56:07.288101] 100
[2025-04-13 13:56:07.288101] 25
[2025-04-13 13:56:07.288101] 1
[2025-04-13 13:56:07.296315] 49
[2025-04-13 13:56:07.296315] 144
[2025-04-13 13:56:07.296315] 196
[2025-04-13 13:56:07.296315] 196
[2025-04-13 13:56:07.296315] 169
[2025-04-13 13:56:07.296315] 121
[2025-04-13 13:56:07.305316] 81
[2025-04-13 13:56:07.305316] 25
[2025-04-13 13:56:07.305316] 4
[2025-04-13 13:56:07.306203] 4
[2025-04-13 13:56:07.306203] 49
[2025-04-13 13:56:07.306203] 121
[2025-04-13 13:56:07.306203] 196
[2025-04-13 13:56:07.306203] 169
[2025-04-13 13:56:07.314279] 81
[2025-04-13 13:56:07.314279] 9
[2025-04-13 13:56:07.314279] 4
[2025-04-13 13:56:07.314279] 49
[2025-04-13 13:56:07.314279] 100
[2025-04-13 13:56:07.314279] 169
[2025-04-13 13:56:07.314279] 196
[2025-04-13 13:56:07.314279] 225
[2025-04-13 13:56:07.323288] 144
[2025-04-13 13:56:07.323288] 100
[2025-04-13 13:56:07.324303] 36
[2025-04-13 13:56:07.324303] 1
[2025-04-13 13:56:07.324303] 16
[2025-04-13 13:56:07.324303] 81
[2025-04-13 13:56:07.324303] 169
[2025-04-13 13:56:07.332012] 196
[2025-04-13 13:56:07.332289] 169
[2025-04-13 13:56:07.332289] 64
[2025-04-13 13:56:07.332289] 4
[2025-04-13 13:56:07.332289] 9
[2025-04-13 13:56:07.332289] 64
[2025-04-13 13:56:07.332289] 121
[2025-04-13 13:56:07.332289] 196
[2025-04-13 13:56:07.341550] 289
[2025-04-13 13:56:07.341550] 289
[2025-04-13 13:56:07.341550] 225
[2025-04-13 13:56:07.341550] 121
[2025-04-13 13:56:07.341550] 36
[2025-04-13 13:56:07.341550] 0
[2025-04-13 13:56:07.341550] 49
[2025-04-13 13:56:07.349944] 144
[2025-04-13 13:56:07.349944] 225
[2025-04-13 13:56:07.349944] 225
[2025-04-13 13:56:07.349944] 169
[2025-04-13 13:56:07.349944] 49
[2025-04-13 13:56:07.349944] 0
[2025-04-13 13:56:07.349944] 25
[2025-04-13 13:56:07.357088] 100
[2025-04-13 13:56:07.357088] 144
[2025-04-13 13:56:07.357088] 196
[2025-04-13 13:56:07.357088] 225
[2025-04-13 13:56:07.357088] 196
[2025-04-13 13:56:07.357088] 100
[2025-04-13 13:56:07.357975] 64
[2025-04-13 13:56:07.366684] 9
[2025-04-13 13:56:07.366684] 1
[2025-04-13 13:56:07.366684] 49
[2025-04-13 13:56:07.366684] 121
[2025-04-13 13:56:07.366684] 196
[2025-04-13 13:56:07.366684] 196
[2025-04-13 13:56:07.366684] 121
[2025-04-13 13:56:07.374844] 25
[2025-04-13 13:56:07.374844] 0
[2025-04-13 13:56:07.374844] 25
[2025-04-13 13:56:07.374844] 121
[2025-04-13 13:56:07.375689] 169
[2025-04-13 13:56:07.375689] 225
[2025-04-13 13:56:07.375689] 256
[2025-04-13 13:56:07.384354] 196
[2025-04-13 13:56:07.384354] 144
[2025-04-13 13:56:07.384354] 64
[2025-04-13 13:56:07.384354] 9
[2025-04-13 13:56:07.384354] 9
[2025-04-13 13:56:07.384354] 64
[2025-04-13 13:56:07.384354] 144
[2025-04-13 13:56:07.385113] 256
[2025-04-13 13:56:07.392128] 225
[2025-04-13 13:56:07.392984] 121
[2025-04-13 13:56:07.392984] 25
[2025-04-13 13:56:07.392984] 1
[2025-04-13 13:56:07.392984] 49
[2025-04-13 13:56:07.392984] 144
[2025-04-13 13:56:07.392984] 196
[2025-04-13 13:56:07.401131] 256
[2025-04-13 13:56:07.401131] 256
[2025-04-13 13:56:07.401131] 196
[2025-04-13 13:56:07.401131] 100
[2025-04-13 13:56:07.401984] 49
[2025-04-13 13:56:07.401984] 1
[2025-04-13 13:56:07.401984] 16
[2025-04-13 13:56:07.409328] 100
[2025-04-13 13:56:07.409328] 225
[2025-04-13 13:56:07.409328] 256
[2025-04-13 13:56:07.409328] 196
[2025-04-13 13:56:07.410352] 81
[2025-04-13 13:56:07.410352] 4
[2025-04-13 13:56:07.410352] 16
[2025-04-13 13:56:07.410352] 64
[2025-04-13 13:56:07.417386] 144
[2025-04-13 13:56:07.417386] 225
[2025-04-13 13:56:07.418351] 256
[2025-04-13 13:56:07.418351] 256
[2025-04-13 13:56:07.418351] 169
[2025-04-13 13:56:07.418351] 121
[2025-04-13 13:56:07.425935] 64
[2025-04-13 13:56:07.425935] 0
[2025-04-13 13:56:07.425935] 49
[2025-04-13 13:56:07.425935] 196
[2025-04-13 13:56:07.425935] 289
[2025-04-13 13:56:07.426790] 256
[2025-04-13 13:56:07.426790] 144
[2025-04-13 13:56:07.434933] 36
[2025-04-13 13:56:07.434933] 0
[2025-04-13 13:56:07.434933] 25
[2025-04-13 13:56:07.434933] 81
[2025-04-13 13:56:07.434933] 144
[2025-04-13 13:56:07.434933] 196
[2025-04-13 13:56:07.434933] 196
[2025-04-13 13:56:07.434933] 169
[2025-04-13 13:56:07.444087] 121
[2025-04-13 13:56:07.444087] 81
[2025-04-13 13:56:07.444087] 25
[2025-04-13 13:56:07.444087] 0
[2025-04-13 13:56:07.444087] 16
[2025-04-13 13:56:07.444087] 81
[2025-04-13 13:56:07.444087] 169
[2025-04-13 13:56:07.453293] 169
[2025-04-13 13:56:07.453293] 121
[2025-04-13 13:56:07.453293] 36
[2025-04-13 13:56:07.453293] 4
[2025-04-13 13:56:07.453293] 4
[2025-04-13 13:56:07.453293] 64
[2025-04-13 13:56:07.453293] 169
[2025-04-13 13:56:07.453293] 324
[2025-04-13 13:56:07.461438] 361
[2025-04-13 13:56:07.461438] 289
[2025-04-13 13:56:07.461438] 144
[2025-04-13 13:56:07.462330] 49
[2025-04-13 13:56:07.462330] 9
[2025-04-13 13:56:07.462330] 9
[2025-04-13 13:56:07.462330] 64
[2025-04-13 13:56:07.470442] 169
[2025-04-13 13:56:07.470442] 225
[2025-04-13 13:56:07.470442] 225
[2025-04-13 13:56:07.470442] 144
[2025-04-13 13:56:07.470442] 49
[2025-04-13 13:56:07.470442] 0
[2025-04-13 13:56:07.470442] 36
[2025-04-13 13:56:07.470442] 121
[2025-04-13 13:56:07.478313] 169
[2025-04-13 13:56:07.478313] 196
[2025-04-13 13:56:07.478313] 225
[2025-04-13 13:56:07.478313] 169
[2025-04-13 13:56:07.478313] 121
[2025-04-13 13:56:07.479287] 64
[2025-04-13 13:56:07.479287] 9
[2025-04-13 13:56:07.487254] 4
[2025-04-13 13:56:07.488256] 64
[2025-04-13 13:56:07.488256] 144
[2025-04-13 13:56:07.488256] 225
[2025-04-13 13:56:07.488256] 196
[2025-04-13 13:56:07.488256] 100
[2025-04-13 13:56:07.488256] 25
[2025-04-13 13:56:07.496316] 4
[2025-04-13 13:56:07.496316] 64
[2025-04-13 13:56:07.496316] 144
[2025-04-13 13:56:07.496316] 225
[2025-04-13 13:56:07.497326] 289
[2025-04-13 13:56:07.497326] 225
[2025-04-13 13:56:07.497326] 169
[2025-04-13 13:56:07.504375] 100
[2025-04-13 13:56:07.504375] 36
[2025-04-13 13:56:07.505376] 1
[2025-04-13 13:56:07.505376] 25
[2025-04-13 13:56:07.505376] 100
[2025-04-13 13:56:07.505376] 225
[2025-04-13 13:56:07.505376] 256
[2025-04-13 13:56:07.513374] 196
[2025-04-13 13:56:07.513374] 64
[2025-04-13 13:56:07.513374] 1
[2025-04-13 13:56:07.513374] 25
[2025-04-13 13:56:07.513374] 100
[2025-04-13 13:56:07.513374] 196
[2025-04-13 13:56:07.513374] 225
[2025-04-13 13:56:07.521383] 196
[2025-04-13 13:56:07.521383] 169
[2025-04-13 13:56:07.521383] 121
[2025-04-13 13:56:07.521383] 81
[2025-04-13 13:56:07.522373] 25
[2025-04-13 13:56:07.522373] 0
[2025-04-13 13:56:07.522373] 25
[2025-04-13 13:56:07.522373] 121
[2025-04-13 13:56:07.531104] 196
[2025-04-13 13:56:07.531104] 225
[2025-04-13 13:56:07.531104] 121
[2025-04-13 13:56:07.531104] 36
[2025-04-13 13:56:07.531104] 0
[2025-04-13 13:56:07.531104] 16
[2025-04-13 13:56:07.531104] 81
[2025-04-13 13:56:07.539107] 169
[2025-04-13 13:56:07.539107] 225
[2025-04-13 13:56:07.539107] 225
[2025-04-13 13:56:07.539107] 196
[2025-04-13 13:56:07.539107] 144
[2025-04-13 13:56:07.539994] 81
[2025-04-13 13:56:07.539994] 16
[2025-04-13 13:56:07.547931] 1
[2025-04-13 13:56:07.547931] 49
[2025-04-13 13:56:07.547931] 121
[2025-04-13 13:56:07.547931] 196
[2025-04-13 13:56:07.547931] 196
[2025-04-13 13:56:07.547931] 100
[2025-04-13 13:56:07.547931] 25
[2025-04-13 13:56:07.556081] 0
[2025-04-13 13:56:07.556081] 36
[2025-04-13 13:56:07.556081] 81
[2025-04-13 13:56:07.556081] 144
[2025-04-13 13:56:07.556081] 196
[2025-04-13 13:56:07.556081] 225
[2025-04-13 13:56:07.556081] 169
[2025-04-13 13:56:07.564778] 121
[2025-04-13 13:56:07.564778] 64
[2025-04-13 13:56:07.564778] 16
[2025-04-13 13:56:07.564778] 4
[2025-04-13 13:56:07.565118] 64
[2025-04-13 13:56:07.565118] 144
[2025-04-13 13:56:07.565118] 225
[2025-04-13 13:56:07.565118] 196
[2025-04-13 13:56:07.574111] 100
[2025-04-13 13:56:07.574111] 16
[2025-04-13 13:56:07.574111] 1
[2025-04-13 13:56:07.574111] 49
[2025-04-13 13:56:07.574111] 144
[2025-04-13 13:56:07.575180] 196
[2025-04-13 13:56:07.575180] 225
[2025-04-13 13:56:07.582125] 196
[2025-04-13 13:56:07.582125] 144
[2025-04-13 13:56:07.582125] 100
[2025-04-13 13:56:07.582125] 25
[2025-04-13 13:56:07.582125] 0
[2025-04-13 13:56:07.582125] 64
[2025-04-13 13:56:07.582125] 144
[2025-04-13 13:56:07.590125] 169
[2025-04-13 13:56:07.591134] 121
[2025-04-13 13:56:07.591134] 81
[2025-04-13 13:56:07.591134] 36
[2025-04-13 13:56:07.591134] 0
[2025-04-13 13:56:07.592119] 16
[2025-04-13 13:56:07.592119] 64
[2025-04-13 13:56:07.592119] 121
[2025-04-13 13:56:07.600149] 144
[2025-04-13 13:56:07.600149] 169
[2025-04-13 13:56:07.600149] 144
[2025-04-13 13:56:07.600149] 121
[2025-04-13 13:56:07.600149] 81
[2025-04-13 13:56:07.600149] 36
[2025-04-13 13:56:07.601193] 1
[2025-04-13 13:56:07.608170] 25
[2025-04-13 13:56:07.608170] 81
[2025-04-13 13:56:07.608170] 169
[2025-04-13 13:56:07.608170] 225
[2025-04-13 13:56:07.608170] 144
[2025-04-13 13:56:07.609155] 64
[2025-04-13 13:56:07.609155] 1
[2025-04-13 13:56:07.616989] 16
[2025-04-13 13:56:07.616989] 100
[2025-04-13 13:56:07.616989] 144
[2025-04-13 13:56:07.616989] 225
[2025-04-13 13:56:07.616989] 256
[2025-04-13 13:56:07.616989] 196
[2025-04-13 13:56:07.616989] 144
[2025-04-13 13:56:07.625180] 81
[2025-04-13 13:56:07.625180] 25
[2025-04-13 13:56:07.625180] 0
[2025-04-13 13:56:07.625180] 36
[2025-04-13 13:56:07.625180] 144
[2025-04-13 13:56:07.625180] 225
[2025-04-13 13:56:07.625180] 225
[2025-04-13 13:56:07.633180] 144
[2025-04-13 13:56:07.633180] 36
[2025-04-13 13:56:07.634186] 1
[2025-04-13 13:56:07.634186] 49
[2025-04-13 13:56:07.634186] 100
[2025-04-13 13:56:07.634186] 169
[2025-04-13 13:56:07.634186] 196
[2025-04-13 13:56:07.643192] 196
[2025-04-13 13:56:07.643192] 144
[2025-04-13 13:56:07.643192] 100
[2025-04-13 13:56:07.643192] 64
[2025-04-13 13:56:07.643192] 16
[2025-04-13 13:56:07.643192] 4
[2025-04-13 13:56:07.643192] 64
[2025-04-13 13:56:07.643192] 144
[2025-04-13 13:56:07.651340] 196
[2025-04-13 13:56:07.651340] 196
[2025-04-13 13:56:07.651340] 100
[2025-04-13 13:56:07.651340] 16
[2025-04-13 13:56:07.651340] 1
[2025-04-13 13:56:07.651340] 49
[2025-04-13 13:56:07.651340] 121
[2025-04-13 13:56:07.659341] 196
[2025-04-13 13:56:07.659341] 225
[2025-04-13 13:56:07.660232] 196
[2025-04-13 13:56:07.660232] 144
[2025-04-13 13:56:07.660232] 100
[2025-04-13 13:56:07.660232] 49
[2025-04-13 13:56:07.660232] 4
[2025-04-13 13:56:07.668927] 9
[2025-04-13 13:56:07.668927] 81
[2025-04-13 13:56:07.669937] 169
[2025-04-13 13:56:07.669937] 225
[2025-04-13 13:56:07.669937] 169
[2025-04-13 13:56:07.669937] 64
[2025-04-13 13:56:07.669937] 4
[2025-04-13 13:56:07.669937] 9
[2025-04-13 13:56:07.676977] 64
[2025-04-13 13:56:07.676977] 121
[2025-04-13 13:56:07.676977] 196
[2025-04-13 13:56:07.676977] 225
[2025-04-13 13:56:07.676977] 196
[2025-04-13 13:56:07.676977] 144
[2025-04-13 13:56:07.676977] 100
[2025-04-13 13:56:07.685431] 49
[2025-04-13 13:56:07.686443] 9
[2025-04-13 13:56:07.686443] 4
[2025-04-13 13:56:07.686443] 81
[2025-04-13 13:56:07.686443] 196
[2025-04-13 13:56:07.686443] 256
[2025-04-13 13:56:07.686443] 225
[2025-04-13 13:56:07.694596] 121
[2025-04-13 13:56:07.694596] 16
[2025-04-13 13:56:07.694596] 25
[2025-04-13 13:56:07.694596] 121
[2025-04-13 13:56:07.694596] 225
[2025-04-13 13:56:07.694596] 289
[2025-04-13 13:56:07.694596] 256
[2025-04-13 13:56:07.702601] 169
[2025-04-13 13:56:07.702601] 121
[2025-04-13 13:56:07.702601] 64
[2025-04-13 13:56:07.702601] 16
[2025-04-13 13:56:07.702601] 1
[2025-04-13 13:56:07.702601] 49
[2025-04-13 13:56:07.703595] 144
[2025-04-13 13:56:07.711375] 225
[2025-04-13 13:56:07.711611] 225
[2025-04-13 13:56:07.711611] 144
[2025-04-13 13:56:07.711611] 25
[2025-04-13 13:56:07.711611] 0
[2025-04-13 13:56:07.711611] 36
[2025-04-13 13:56:07.711611] 100
[2025-04-13 13:56:07.711611] 144
[2025-04-13 13:56:07.720256] 225
[2025-04-13 13:56:07.720256] 225
[2025-04-13 13:56:07.720256] 196
[2025-04-13 13:56:07.720256] 121
[2025-04-13 13:56:07.720256] 64
[2025-04-13 13:56:07.720256] 16
[2025-04-13 13:56:07.720256] 4
[2025-04-13 13:56:07.728256] 64
[2025-04-13 13:56:07.729248] 144
[2025-04-13 13:56:07.729248] 225
[2025-04-13 13:56:07.729248] 196
[2025-04-13 13:56:07.729248] 121
[2025-04-13 13:56:07.729248] 25
[2025-04-13 13:56:07.729248] 1
[2025-04-13 13:56:07.736484] 64
[2025-04-13 13:56:07.736484] 144
[2025-04-13 13:56:07.736484] 169
[2025-04-13 13:56:07.736484] 196
[2025-04-13 13:56:07.736484] 225
[2025-04-13 13:56:07.736484] 169
[2025-04-13 13:56:07.736484] 121
[2025-04-13 13:56:07.747584] 49
[2025-04-13 13:56:07.747584] 4
[2025-04-13 13:56:07.747584] 4
[2025-04-13 13:56:07.747584] 64
[2025-04-13 13:56:07.747584] 169
[2025-04-13 13:56:07.747584] 225
[2025-04-13 13:56:07.747584] 196
[2025-04-13 13:56:07.754721] 81
[2025-04-13 13:56:07.754721] 9
[2025-04-13 13:56:07.755575] 4
[2025-04-13 13:56:07.755575] 49
[2025-04-13 13:56:07.755575] 121
[2025-04-13 13:56:07.755575] 196
[2025-04-13 13:56:07.755575] 225
[2025-04-13 13:56:07.755575] 225
[2025-04-13 13:56:07.763740] 144
[2025-04-13 13:56:07.763740] 81
[2025-04-13 13:56:07.763740] 25
[2025-04-13 13:56:07.763740] 0
[2025-04-13 13:56:07.763740] 16
[2025-04-13 13:56:07.763740] 100
[2025-04-13 13:56:07.763740] 196
[2025-04-13 13:56:07.772748] 196
[2025-04-13 13:56:07.772748] 144
[2025-04-13 13:56:07.772748] 49
[2025-04-13 13:56:07.772748] 4
[2025-04-13 13:56:07.772748] 9
[2025-04-13 13:56:07.772748] 64
[2025-04-13 13:56:07.772748] 121
[2025-04-13 13:56:07.772748] 169
[2025-04-13 13:56:07.780823] 225
[2025-04-13 13:56:07.780823] 225
[2025-04-13 13:56:07.781870] 169
[2025-04-13 13:56:07.781870] 100
[2025-04-13 13:56:07.781870] 36
[2025-04-13 13:56:07.781870] 0
[2025-04-13 13:56:07.781870] 25
[2025-04-13 13:56:07.789117] 121
[2025-04-13 13:56:07.789117] 225
[2025-04-13 13:56:07.790150] 225
[2025-04-13 13:56:07.790150] 144
[2025-04-13 13:56:07.790150] 49
[2025-04-13 13:56:07.790150] 0
[2025-04-13 13:56:07.790150] 16
[2025-04-13 13:56:07.798226] 81
[2025-04-13 13:56:07.798226] 169
[2025-04-13 13:56:07.798226] 225
[2025-04-13 13:56:07.798226] 225
[2025-04-13 13:56:07.798226] 196
[2025-04-13 13:56:07.798226] 144
[2025-04-13 13:56:07.798226] 81
[2025-04-13 13:56:07.807528] 16
[2025-04-13 13:56:07.807528] 1
[2025-04-13 13:56:07.807528] 81
[2025-04-13 13:56:07.808423] 196
[2025-04-13 13:56:07.808423] 225
[2025-04-13 13:56:07.808423] 169
[2025-04-13 13:56:07.808423] 64
[2025-04-13 13:56:07.808423] 9
[2025-04-13 13:56:07.816047] 4
[2025-04-13 13:56:07.816047] 49
[2025-04-13 13:56:07.816047] 100
[2025-04-13 13:56:07.816047] 169
[2025-04-13 13:56:07.816047] 196
[2025-04-13 13:56:07.816047] 196
[2025-04-13 13:56:07.816047] 169
[2025-04-13 13:56:07.823991] 121
[2025-04-13 13:56:07.823991] 64
[2025-04-13 13:56:07.823991] 9
[2025-04-13 13:56:07.823991] 4
[2025-04-13 13:56:07.823991] 49
[2025-04-13 13:56:07.825048] 169
[2025-04-13 13:56:07.825048] 225
[2025-04-13 13:56:07.833027] 225
[2025-04-13 13:56:07.833027] 121
[2025-04-13 13:56:07.833027] 16
[2025-04-13 13:56:07.833027] 1
[2025-04-13 13:56:07.833027] 49
[2025-04-13 13:56:07.833027] 121
[2025-04-13 13:56:07.833027] 196
[2025-04-13 13:56:07.833027] 225
[2025-04-13 13:56:07.842281] 196
[2025-04-13 13:56:07.842281] 144
[2025-04-13 13:56:07.842281] 121
[2025-04-13 13:56:07.842281] 49
[2025-04-13 13:56:07.842281] 4
[2025-04-13 13:56:07.842281] 9
[2025-04-13 13:56:07.842281] 81
[2025-04-13 13:56:07.851565] 144
[2025-04-13 13:56:07.851565] 225
[2025-04-13 13:56:07.851565] 169
[2025-04-13 13:56:07.851565] 81
[2025-04-13 13:56:07.851565] 9
[2025-04-13 13:56:07.851565] 4
[2025-04-13 13:56:07.851565] 49
[2025-04-13 13:56:07.851565] 100
[2025-04-13 13:56:07.859625] 169
[2025-04-13 13:56:07.859625] 225
[2025-04-13 13:56:07.859625] 225
[2025-04-13 13:56:07.859625] 144
[2025-04-13 13:56:07.859625] 81
[2025-04-13 13:56:07.859625] 49
[2025-04-13 13:56:07.859625] 4
[2025-04-13 13:56:07.869296] 9
[2025-04-13 13:56:07.869630] 81
[2025-04-13 13:56:07.869630] 169
[2025-04-13 13:56:07.869630] 196
[2025-04-13 13:56:07.869630] 144
[2025-04-13 13:56:07.869630] 64
[2025-04-13 13:56:07.869630] 4
[2025-04-13 13:56:07.870640] 9
[2025-04-13 13:56:07.876784] 64
[2025-04-13 13:56:07.876784] 121
[2025-04-13 13:56:07.876784] 169
[2025-04-13 13:56:07.876784] 196
[2025-04-13 13:56:07.876784] 196
[2025-04-13 13:56:07.876784] 144
[2025-04-13 13:56:07.877780] 100
[2025-04-13 13:56:07.885428] 36
[2025-04-13 13:56:07.886443] 1
[2025-04-13 13:56:07.886443] 16
[2025-04-13 13:56:07.886443] 100
[2025-04-13 13:56:07.886443] 225
[2025-04-13 13:56:07.886443] 256
[2025-04-13 13:56:07.886443] 144
[2025-04-13 13:56:07.894429] 49
[2025-04-13 13:56:07.894429] 0
[2025-04-13 13:56:07.894429] 16
[2025-04-13 13:56:07.894429] 81
[2025-04-13 13:56:07.894429] 144
[2025-04-13 13:56:07.894429] 196
[2025-04-13 13:56:07.894429] 225
[2025-04-13 13:56:07.902974] 169
[2025-04-13 13:56:07.902974] 121
[2025-04-13 13:56:07.902974] 81
[2025-04-13 13:56:07.902974] 25
[2025-04-13 13:56:07.902974] 0
[2025-04-13 13:56:07.902974] 36
[2025-04-13 13:56:07.902974] 121
[2025-04-13 13:56:07.902974] 225
[2025-04-13 13:56:07.912364] 256
[2025-04-13 13:56:07.912364] 121
[2025-04-13 13:56:07.912364] 25
[2025-04-13 13:56:07.912364] 0
[2025-04-13 13:56:07.912364] 49
[2025-04-13 13:56:07.912364] 144
[2025-04-13 13:56:07.912364] 196
[2025-04-13 13:56:07.920371] 225
[2025-04-13 13:56:07.920371] 225
[2025-04-13 13:56:07.920371] 144
[2025-04-13 13:56:07.920371] 121
[2025-04-13 13:56:07.920371] 64
[2025-04-13 13:56:07.920371] 16
[2025-04-13 13:56:07.920371] 4
[2025-04-13 13:56:07.929230] 64
[2025-04-13 13:56:07.929230] 144
[2025-04-13 13:56:07.929230] 225
[2025-04-13 13:56:07.929230] 196
[2025-04-13 13:56:07.929230] 100
[2025-04-13 13:56:07.929230] 36
[2025-04-13 13:56:07.929230] 0
[2025-04-13 13:56:07.936940] 25
[2025-04-13 13:56:07.936940] 100
[2025-04-13 13:56:07.937822] 144
[2025-04-13 13:56:07.937822] 196
[2025-04-13 13:56:07.937822] 256
[2025-04-13 13:56:07.937822] 289
[2025-04-13 13:56:07.937822] 196
[2025-04-13 13:56:07.945918] 100
[2025-04-13 13:56:07.945918] 16
[2025-04-13 13:56:07.945918] 9
[2025-04-13 13:56:07.945918] 100
[2025-04-13 13:56:07.945918] 225
[2025-04-13 13:56:07.945918] 324
[2025-04-13 13:56:07.945918] 256
[2025-04-13 13:56:07.954182] 121
[2025-04-13 13:56:07.954182] 25
[2025-04-13 13:56:07.954182] 4
[2025-04-13 13:56:07.954182] 64
[2025-04-13 13:56:07.954182] 169
[2025-04-13 13:56:07.954182] 225
[2025-04-13 13:56:07.955247] 256
[2025-04-13 13:56:07.962816] 225
[2025-04-13 13:56:07.962816] 169
[2025-04-13 13:56:07.962816] 100
[2025-04-13 13:56:07.962816] 36
[2025-04-13 13:56:07.962816] 1
[2025-04-13 13:56:07.963822] 16
[2025-04-13 13:56:07.963822] 81
[2025-04-13 13:56:07.971811] 169
[2025-04-13 13:56:07.971811] 225
[2025-04-13 13:56:07.971811] 169
[2025-04-13 13:56:07.971811] 64
[2025-04-13 13:56:07.971811] 4
[2025-04-13 13:56:07.971811] 9
[2025-04-13 13:56:07.972812] 64
[2025-04-13 13:56:07.972812] 144
[2025-04-13 13:56:07.980308] 225
[2025-04-13 13:56:07.980308] 256
[2025-04-13 13:56:07.980308] 225
[2025-04-13 13:56:07.980308] 144
[2025-04-13 13:56:07.980822] 100
[2025-04-13 13:56:07.980822] 36
[2025-04-13 13:56:07.980822] 0
[2025-04-13 13:56:07.988273] 36
[2025-04-13 13:56:07.988273] 121
[2025-04-13 13:56:07.988273] 225
[2025-04-13 13:56:07.988273] 256
[2025-04-13 13:56:07.989281] 144
[2025-04-13 13:56:07.989281] 36
[2025-04-13 13:56:07.989281] 1
[2025-04-13 13:56:07.996526] 25
[2025-04-13 13:56:07.996526] 81
[2025-04-13 13:56:07.997532] 144
[2025-04-13 13:56:07.997532] 196
[2025-04-13 13:56:07.997532] 256
[2025-04-13 13:56:07.997532] 196
[2025-04-13 13:56:07.997532] 144
[2025-04-13 13:56:08.005563] 64
[2025-04-13 13:56:08.005563] 9
[2025-04-13 13:56:08.005563] 9
[2025-04-13 13:56:08.005563] 64
[2025-04-13 13:56:08.005563] 144
[2025-04-13 13:56:08.005563] 196
[2025-04-13 13:56:08.005563] 196
[2025-04-13 13:56:08.005563] 100
[2025-04-13 13:56:08.014767] 16
[2025-04-13 13:56:08.014767] 1
[2025-04-13 13:56:08.014767] 49
[2025-04-13 13:56:08.014767] 121
[2025-04-13 13:56:08.014767] 196
[2025-04-13 13:56:08.014767] 256
[2025-04-13 13:56:08.014767] 225
[2025-04-13 13:56:08.023222] 196
[2025-04-13 13:56:08.023222] 100
[2025-04-13 13:56:08.023222] 36
[2025-04-13 13:56:08.024085] 1
[2025-04-13 13:56:08.024085] 9
[2025-04-13 13:56:08.024085] 64
[2025-04-13 13:56:08.024085] 144
[2025-04-13 13:56:08.032081] 225
[2025-04-13 13:56:08.032081] 196
[2025-04-13 13:56:08.032081] 100
[2025-04-13 13:56:08.032081] 16
[2025-04-13 13:56:08.032081] 4
[2025-04-13 13:56:08.032081] 49
[2025-04-13 13:56:08.032081] 144
[2025-04-13 13:56:08.032081] 225
[2025-04-13 13:56:08.040976] 225
[2025-04-13 13:56:08.040976] 225
[2025-04-13 13:56:08.040976] 144
[2025-04-13 13:56:08.041990] 100
[2025-04-13 13:56:08.041990] 49
[2025-04-13 13:56:08.041990] 1
[2025-04-13 13:56:08.041990] 16
[2025-04-13 13:56:08.049572] 100
[2025-04-13 13:56:08.049572] 196
[2025-04-13 13:56:08.049572] 225
[2025-04-13 13:56:08.050021] 169
[2025-04-13 13:56:08.050021] 64
[2025-04-13 13:56:08.050021] 4
[2025-04-13 13:56:08.050021] 16
[2025-04-13 13:56:08.057220] 64
[2025-04-13 13:56:08.057220] 121
[2025-04-13 13:56:08.058220] 225
[2025-04-13 13:56:08.058220] 225
[2025-04-13 13:56:08.058220] 196
[2025-04-13 13:56:08.058220] 121
[2025-04-13 13:56:08.058220] 64
[2025-04-13 13:56:08.066236] 16
[2025-04-13 13:56:08.066236] 0
[2025-04-13 13:56:08.066236] 36
[2025-04-13 13:56:08.066236] 121
[2025-04-13 13:56:08.066236] 225
