[2025-04-13 13:56:58.143111] 144
[2025-04-13 13:56:58.143111] 25
[2025-04-13 13:56:58.144114] 0
[2025-04-13 13:56:58.144114] 49
[2025-04-13 13:56:58.144114] 121
[2025-04-13 13:56:58.144114] 196
[2025-04-13 13:56:59.608510] 1024
[2025-04-13 13:56:59.608510] 13689
[2025-04-13 13:56:59.608985] 4294936356
[2025-04-13 13:56:59.614065] 4294938624
[2025-04-13 13:56:59.614065] 23716
[2025-04-13 13:56:59.614065] 10816
[2025-04-13 13:56:59.615027] 3600
[2025-04-13 13:56:59.615027] 900
[2025-04-13 13:56:59.622968] 144
[2025-04-13 13:56:59.622968] 4
[2025-04-13 13:56:59.622968] 4
[2025-04-13 13:56:59.622968] 25
[2025-04-13 13:56:59.622968] 49
[2025-04-13 13:56:59.622968] 100
[2025-04-13 13:56:59.622968] 169
[2025-04-13 13:56:59.622968] 289
[2025-04-13 13:56:59.629979] 529
[2025-04-13 13:56:59.629979] 961
[2025-04-13 13:56:59.629979] 1600
[2025-04-13 13:56:59.630836] 2401
[2025-04-13 13:56:59.630836] 3481
[2025-04-13 13:56:59.636994] 4624
[2025-04-13 13:56:59.636994] 5625
[2025-04-13 13:56:59.636994] 6400
[2025-04-13 13:56:59.636994] 6400
[2025-04-13 13:56:59.636994] 5329
[2025-04-13 13:56:59.636994] 3844
[2025-04-13 13:56:59.645297] 2401
[2025-04-13 13:56:59.645297] 1225
[2025-04-13 13:56:59.645297] 441
[2025-04-13 13:56:59.645297] 64
[2025-04-13 13:56:59.645297] 0
[2025-04-13 13:56:59.645297] 49
[2025-04-13 13:56:59.653333] 100
[2025-04-13 13:56:59.653333] 100
[2025-04-13 13:56:59.653333] 81
[2025-04-13 13:56:59.653333] 16
[2025-04-13 13:56:59.654222] 4
[2025-04-13 13:56:59.654222] 144
[2025-04-13 13:56:59.654222] 400
[2025-04-13 13:56:59.654222] 676
[2025-04-13 13:56:59.662195] 784
[2025-04-13 13:56:59.663227] 676
[2025-04-13 13:56:59.663227] 441
[2025-04-13 13:56:59.663227] 169
[2025-04-13 13:56:59.663227] 36
[2025-04-13 13:56:59.664247] 0
[2025-04-13 13:56:59.664247] 49
[2025-04-13 13:56:59.669995] 144
[2025-04-13 13:56:59.669995] 256
[2025-04-13 13:56:59.669995] 324
[2025-04-13 13:56:59.669995] 441
[2025-04-13 13:56:59.669995] 441
[2025-04-13 13:56:59.671029] 324
[2025-04-13 13:56:59.680003] 169
[2025-04-13 13:56:59.680003] 36
[2025-04-13 13:56:59.680003] 0
[2025-04-13 13:56:59.680995] 25
[2025-04-13 13:56:59.680995] 36
[2025-04-13 13:56:59.680995] 16
[2025-04-13 13:56:59.680995] 9
[2025-04-13 13:56:59.680995] 1
[2025-04-13 13:56:59.680995] 0
[2025-04-13 13:56:59.691007] 0
[2025-04-13 13:56:59.691007] 1
[2025-04-13 13:56:59.691007] 4
[2025-04-13 13:56:59.691007] 9
[2025-04-13 13:56:59.691007] 25
[2025-04-13 13:56:59.691007] 36
[2025-04-13 13:56:59.691007] 49
[2025-04-13 13:56:59.691513] 49
[2025-04-13 13:56:59.691513] 16
[2025-04-13 13:56:59.701568] 0
[2025-04-13 13:56:59.701568] 4
[2025-04-13 13:56:59.701568] 9
[2025-04-13 13:56:59.701568] 1
[2025-04-13 13:56:59.701568] 4
[2025-04-13 13:56:59.701568] 16
[2025-04-13 13:56:59.701568] 64
[2025-04-13 13:56:59.701568] 64
[2025-04-13 13:56:59.701568] 64
[2025-04-13 13:56:59.711643] 49
[2025-04-13 13:56:59.711643] 36
[2025-04-13 13:56:59.711643] 16
[2025-04-13 13:56:59.711643] 0
[2025-04-13 13:56:59.711643] 1
[2025-04-13 13:56:59.711643] 4
[2025-04-13 13:56:59.711643] 16
[2025-04-13 13:56:59.712589] 49
[2025-04-13 13:56:59.712589] 81
[2025-04-13 13:56:59.720428] 100
[2025-04-13 13:56:59.720428] 81
[2025-04-13 13:56:59.720428] 36
[2025-04-13 13:56:59.720428] 0
[2025-04-13 13:56:59.720428] 25
[2025-04-13 13:56:59.721434] 144
[2025-04-13 13:56:59.721434] 256
[2025-04-13 13:56:59.729668] 324
[2025-04-13 13:56:59.729668] 324
[2025-04-13 13:56:59.729668] 289
[2025-04-13 13:56:59.729668] 169
[2025-04-13 13:56:59.729668] 64
[2025-04-13 13:56:59.729668] 4
[2025-04-13 13:56:59.729668] 1
[2025-04-13 13:56:59.729668] 49
[2025-04-13 13:56:59.737764] 144
[2025-04-13 13:56:59.737764] 324
[2025-04-13 13:56:59.737764] 400
[2025-04-13 13:56:59.737764] 400
[2025-04-13 13:56:59.737764] 225
[2025-04-13 13:56:59.737764] 49
[2025-04-13 13:56:59.737764] 0
[2025-04-13 13:56:59.745551] 81
[2025-04-13 13:56:59.745765] 256
[2025-04-13 13:56:59.745765] 441
[2025-04-13 13:56:59.745765] 529
[2025-04-13 13:56:59.745765] 576
[2025-04-13 13:56:59.745765] 441
[2025-04-13 13:56:59.745765] 256
[2025-04-13 13:56:59.753947] 121
[2025-04-13 13:56:59.753947] 25
[2025-04-13 13:56:59.753947] 9
[2025-04-13 13:56:59.753947] 121
[2025-04-13 13:56:59.754988] 361
[2025-04-13 13:56:59.754988] 529
[2025-04-13 13:56:59.754988] 576
[2025-04-13 13:56:59.762304] 441
[2025-04-13 13:56:59.762304] 196
[2025-04-13 13:56:59.762304] 25
[2025-04-13 13:56:59.762304] 16
[2025-04-13 13:56:59.762304] 144
[2025-04-13 13:56:59.762304] 324
[2025-04-13 13:56:59.770427] 441
[2025-04-13 13:56:59.770427] 529
[2025-04-13 13:56:59.770427] 484
[2025-04-13 13:56:59.770427] 361
[2025-04-13 13:56:59.770427] 225
[2025-04-13 13:56:59.770427] 100
[2025-04-13 13:56:59.770427] 4
[2025-04-13 13:56:59.778462] 36
[2025-04-13 13:56:59.778462] 196
[2025-04-13 13:56:59.778462] 361
[2025-04-13 13:56:59.778462] 400
[2025-04-13 13:56:59.778462] 324
[2025-04-13 13:56:59.779503] 144
[2025-04-13 13:56:59.779503] 25
[2025-04-13 13:56:59.787582] 1
[2025-04-13 13:56:59.787582] 49
[2025-04-13 13:56:59.787582] 144
[2025-04-13 13:56:59.787582] 225
[2025-04-13 13:56:59.787582] 289
[2025-04-13 13:56:59.787582] 256
[2025-04-13 13:56:59.787582] 196
[2025-04-13 13:56:59.795775] 144
[2025-04-13 13:56:59.795775] 64
[2025-04-13 13:56:59.795775] 1
[2025-04-13 13:56:59.795775] 16
[2025-04-13 13:56:59.795775] 100
[2025-04-13 13:56:59.796283] 196
[2025-04-13 13:56:59.796283] 196
[2025-04-13 13:56:59.804417] 121
[2025-04-13 13:56:59.804417] 25
[2025-04-13 13:56:59.804417] 0
[2025-04-13 13:56:59.804417] 25
[2025-04-13 13:56:59.804417] 81
[2025-04-13 13:56:59.804417] 121
[2025-04-13 13:56:59.804417] 144
[2025-04-13 13:56:59.804417] 144
[2025-04-13 13:56:59.813916] 121
[2025-04-13 13:56:59.813916] 81
[2025-04-13 13:56:59.813916] 49
[2025-04-13 13:56:59.813916] 9
[2025-04-13 13:56:59.813916] 4
[2025-04-13 13:56:59.813916] 81
[2025-04-13 13:56:59.813916] 169
[2025-04-13 13:56:59.822464] 196
[2025-04-13 13:56:59.823324] 144
[2025-04-13 13:56:59.823324] 64
[2025-04-13 13:56:59.823324] 1
[2025-04-13 13:56:59.823324] 9
[2025-04-13 13:56:59.823324] 81
[2025-04-13 13:56:59.823324] 169
[2025-04-13 13:56:59.823324] 196
[2025-04-13 13:56:59.831588] 225
[2025-04-13 13:56:59.831588] 196
[2025-04-13 13:56:59.831588] 144
[2025-04-13 13:56:59.831588] 81
[2025-04-13 13:56:59.831588] 36
[2025-04-13 13:56:59.831588] 1
[2025-04-13 13:56:59.831588] 16
[2025-04-13 13:56:59.839377] 121
[2025-04-13 13:56:59.839377] 225
[2025-04-13 13:56:59.840269] 256
[2025-04-13 13:56:59.840269] 196
[2025-04-13 13:56:59.840269] 64
[2025-04-13 13:56:59.840269] 1
[2025-04-13 13:56:59.840269] 16
[2025-04-13 13:56:59.840269] 100
[2025-04-13 13:56:59.848261] 169
[2025-04-13 13:56:59.848261] 225
[2025-04-13 13:56:59.848261] 256
[2025-04-13 13:56:59.848261] 225
[2025-04-13 13:56:59.848261] 144
[2025-04-13 13:56:59.848261] 81
[2025-04-13 13:56:59.855872] 25
[2025-04-13 13:56:59.856825] 0
[2025-04-13 13:56:59.856825] 36
[2025-04-13 13:56:59.856825] 144
[2025-04-13 13:56:59.856825] 256
[2025-04-13 13:56:59.857867] 289
[2025-04-13 13:56:59.857867] 169
[2025-04-13 13:56:59.857867] 81
[2025-04-13 13:56:59.864967] 1
[2025-04-13 13:56:59.864967] 25
[2025-04-13 13:56:59.864967] 100
[2025-04-13 13:56:59.864967] 169
[2025-04-13 13:56:59.865901] 225
[2025-04-13 13:56:59.865901] 256
[2025-04-13 13:56:59.865901] 196
[2025-04-13 13:56:59.874597] 121
[2025-04-13 13:56:59.874597] 81
[2025-04-13 13:56:59.874597] 25
[2025-04-13 13:56:59.874597] 0
[2025-04-13 13:56:59.874597] 25
[2025-04-13 13:56:59.874597] 121
[2025-04-13 13:56:59.874597] 196
[2025-04-13 13:56:59.883094] 169
[2025-04-13 13:56:59.883094] 100
[2025-04-13 13:56:59.883094] 25
[2025-04-13 13:56:59.883094] 1
[2025-04-13 13:56:59.883094] 36
[2025-04-13 13:56:59.883094] 81
[2025-04-13 13:56:59.883094] 144
[2025-04-13 13:56:59.892102] 169
[2025-04-13 13:56:59.892102] 169
[2025-04-13 13:56:59.892102] 121
[2025-04-13 13:56:59.892102] 64
[2025-04-13 13:56:59.892102] 25
[2025-04-13 13:56:59.892102] 1
[2025-04-13 13:56:59.892102] 9
[2025-04-13 13:56:59.892102] 64
[2025-04-13 13:56:59.900753] 144
[2025-04-13 13:56:59.900753] 169
[2025-04-13 13:56:59.900753] 121
[2025-04-13 13:56:59.900753] 49
[2025-04-13 13:56:59.900753] 1
[2025-04-13 13:56:59.900753] 16
[2025-04-13 13:56:59.900753] 121
[2025-04-13 13:56:59.909765] 196
[2025-04-13 13:56:59.909765] 225
[2025-04-13 13:56:59.909765] 256
[2025-04-13 13:56:59.909765] 196
[2025-04-13 13:56:59.909765] 121
[2025-04-13 13:56:59.909765] 49
[2025-04-13 13:56:59.909765] 9
[2025-04-13 13:56:59.909765] 4
[2025-04-13 13:56:59.918365] 49
[2025-04-13 13:56:59.918365] 144
[2025-04-13 13:56:59.918955] 256
[2025-04-13 13:56:59.918955] 256
[2025-04-13 13:56:59.918955] 169
[2025-04-13 13:56:59.918955] 49
[2025-04-13 13:56:59.918955] 0
[2025-04-13 13:56:59.925965] 49
[2025-04-13 13:56:59.925965] 169
[2025-04-13 13:56:59.925965] 289
[2025-04-13 13:56:59.925965] 324
[2025-04-13 13:56:59.925965] 324
[2025-04-13 13:56:59.925965] 256
[2025-04-13 13:56:59.925965] 144
[2025-04-13 13:56:59.934536] 81
[2025-04-13 13:56:59.935530] 9
[2025-04-13 13:56:59.935530] 4
[2025-04-13 13:56:59.935530] 81
[2025-04-13 13:56:59.935530] 225
[2025-04-13 13:56:59.935530] 361
[2025-04-13 13:56:59.935530] 400
[2025-04-13 13:56:59.943373] 256
[2025-04-13 13:56:59.943373] 100
[2025-04-13 13:56:59.943373] 1
[2025-04-13 13:56:59.943373] 36
[2025-04-13 13:56:59.943373] 169
[2025-04-13 13:56:59.943373] 324
[2025-04-13 13:56:59.943373] 400
[2025-04-13 13:56:59.951380] 441
[2025-04-13 13:56:59.951380] 289
[2025-04-13 13:56:59.951380] 196
[2025-04-13 13:56:59.952371] 100
[2025-04-13 13:56:59.952371] 25
[2025-04-13 13:56:59.952371] 1
[2025-04-13 13:56:59.952371] 64
[2025-04-13 13:56:59.960386] 225
[2025-04-13 13:56:59.960386] 361
[2025-04-13 13:56:59.960386] 400
[2025-04-13 13:56:59.960386] 256
[2025-04-13 13:56:59.960386] 81
[2025-04-13 13:56:59.960386] 4
[2025-04-13 13:56:59.960386] 16
[2025-04-13 13:56:59.960386] 100
[2025-04-13 13:56:59.968752] 196
[2025-04-13 13:56:59.968752] 289
[2025-04-13 13:56:59.968752] 324
[2025-04-13 13:56:59.968752] 289
[2025-04-13 13:56:59.968752] 256
[2025-04-13 13:56:59.968752] 169
[2025-04-13 13:56:59.976973] 64
[2025-04-13 13:56:59.976973] 1
[2025-04-13 13:56:59.976973] 36
[2025-04-13 13:56:59.976973] 144
[2025-04-13 13:56:59.976973] 256
[2025-04-13 13:56:59.976973] 256
[2025-04-13 13:56:59.976973] 144
[2025-04-13 13:56:59.984843] 49
[2025-04-13 13:56:59.985836] 0
[2025-04-13 13:56:59.985836] 16
[2025-04-13 13:56:59.985836] 49
[2025-04-13 13:56:59.985836] 100
[2025-04-13 13:56:59.985836] 196
[2025-04-13 13:56:59.985836] 225
[2025-04-13 13:56:59.985836] 169
[2025-04-13 13:56:59.994836] 121
[2025-04-13 13:56:59.994836] 64
[2025-04-13 13:56:59.994836] 16
[2025-04-13 13:56:59.994836] 1
[2025-04-13 13:56:59.994836] 25
[2025-04-13 13:56:59.994836] 100
[2025-04-13 13:56:59.994836] 144
[2025-04-13 13:57:00.004208] 144
[2025-04-13 13:57:00.004208] 81
[2025-04-13 13:57:00.004208] 9
[2025-04-13 13:57:00.004208] 1
[2025-04-13 13:57:00.004208] 25
[2025-04-13 13:57:00.004208] 81
[2025-04-13 13:57:00.004208] 100
[2025-04-13 13:57:00.004208] 144
[2025-04-13 13:57:00.012522] 121
[2025-04-13 13:57:00.012522] 81
[2025-04-13 13:57:00.013376] 81
[2025-04-13 13:57:00.013376] 36
[2025-04-13 13:57:00.013376] 1
[2025-04-13 13:57:00.013376] 16
[2025-04-13 13:57:00.013376] 64
[2025-04-13 13:57:00.014369] 121
[2025-04-13 13:57:00.021401] 144
[2025-04-13 13:57:00.021401] 100
[2025-04-13 13:57:00.022404] 36
[2025-04-13 13:57:00.022404] 0
[2025-04-13 13:57:00.022404] 25
[2025-04-13 13:57:00.022404] 100
[2025-04-13 13:57:00.022404] 144
[2025-04-13 13:57:00.029655] 169
[2025-04-13 13:57:00.030694] 196
[2025-04-13 13:57:00.030694] 169
[2025-04-13 13:57:00.030694] 100
[2025-04-13 13:57:00.030694] 36
[2025-04-13 13:57:00.030694] 4
[2025-04-13 13:57:00.030694] 9
[2025-04-13 13:57:00.038766] 64
[2025-04-13 13:57:00.038766] 144
[2025-04-13 13:57:00.038766] 225
[2025-04-13 13:57:00.039771] 225
[2025-04-13 13:57:00.039771] 121
[2025-04-13 13:57:00.039771] 25
[2025-04-13 13:57:00.039771] 4
[2025-04-13 13:57:00.039771] 81
[2025-04-13 13:57:00.046806] 196
[2025-04-13 13:57:00.046806] 256
[2025-04-13 13:57:00.046806] 289
[2025-04-13 13:57:00.046806] 256
[2025-04-13 13:57:00.047804] 225
[2025-04-13 13:57:00.047804] 121
[2025-04-13 13:57:00.055045] 64
[2025-04-13 13:57:00.055045] 9
[2025-04-13 13:57:00.055992] 9
[2025-04-13 13:57:00.055992] 81
[2025-04-13 13:57:00.055992] 196
[2025-04-13 13:57:00.055992] 324
[2025-04-13 13:57:00.055992] 289
[2025-04-13 13:57:00.055992] 196
[2025-04-13 13:57:00.064997] 64
[2025-04-13 13:57:00.064997] 0
[2025-04-13 13:57:00.064997] 64
[2025-04-13 13:57:00.064997] 169
[2025-04-13 13:57:00.064997] 289
[2025-04-13 13:57:00.064997] 324
[2025-04-13 13:57:00.064997] 361
[2025-04-13 13:57:00.072984] 289
[2025-04-13 13:57:00.072984] 169
[2025-04-13 13:57:00.072984] 100
[2025-04-13 13:57:00.072984] 16
[2025-04-13 13:57:00.072984] 9
[2025-04-13 13:57:00.073962] 121
[2025-04-13 13:57:00.073962] 256
[2025-04-13 13:57:00.081922] 361
[2025-04-13 13:57:00.081922] 289
[2025-04-13 13:57:00.081922] 169
[2025-04-13 13:57:00.081922] 25
[2025-04-13 13:57:00.081922] 1
[2025-04-13 13:57:00.081922] 36
[2025-04-13 13:57:00.081922] 144
[2025-04-13 13:57:00.089850] 196
[2025-04-13 13:57:00.089850] 289
[2025-04-13 13:57:00.089850] 289
[2025-04-13 13:57:00.089850] 196
[2025-04-13 13:57:00.089850] 144
[2025-04-13 13:57:00.089850] 81
[2025-04-13 13:57:00.089850] 9
[2025-04-13 13:57:00.098610] 4
[2025-04-13 13:57:00.098610] 64
[2025-04-13 13:57:00.098610] 169
[2025-04-13 13:57:00.098610] 289
[2025-04-13 13:57:00.098610] 225
[2025-04-13 13:57:00.098610] 100
[2025-04-13 13:57:00.098610] 16
[2025-04-13 13:57:00.098610] 4
[2025-04-13 13:57:00.106689] 64
[2025-04-13 13:57:00.106689] 121
[2025-04-13 13:57:00.107616] 196
[2025-04-13 13:57:00.107616] 225
[2025-04-13 13:57:00.107616] 196
[2025-04-13 13:57:00.107616] 169
[2025-04-13 13:57:00.114622] 100
[2025-04-13 13:57:00.115615] 36
[2025-04-13 13:57:00.115615] 1
[2025-04-13 13:57:00.115615] 16
[2025-04-13 13:57:00.115615] 100
[2025-04-13 13:57:00.115615] 196
[2025-04-13 13:57:00.115615] 225
[2025-04-13 13:57:00.123747] 169
[2025-04-13 13:57:00.123747] 64
[2025-04-13 13:57:00.123747] 1
[2025-04-13 13:57:00.123747] 25
[2025-04-13 13:57:00.124795] 100
[2025-04-13 13:57:00.124795] 196
[2025-04-13 13:57:00.124795] 256
[2025-04-13 13:57:00.124795] 225
[2025-04-13 13:57:00.133046] 196
[2025-04-13 13:57:00.133046] 121
[2025-04-13 13:57:00.133046] 81
[2025-04-13 13:57:00.133046] 36
[2025-04-13 13:57:00.133046] 0
[2025-04-13 13:57:00.133046] 49
[2025-04-13 13:57:00.133046] 169
[2025-04-13 13:57:00.141449] 289
[2025-04-13 13:57:00.141449] 256
[2025-04-13 13:57:00.141449] 169
[2025-04-13 13:57:00.141449] 36
[2025-04-13 13:57:00.141449] 1
[2025-04-13 13:57:00.141449] 49
[2025-04-13 13:57:00.141449] 144
[2025-04-13 13:57:00.149453] 225
[2025-04-13 13:57:00.149453] 289
[2025-04-13 13:57:00.149453] 256
[2025-04-13 13:57:00.149453] 196
[2025-04-13 13:57:00.149453] 100
[2025-04-13 13:57:00.150446] 49
[2025-04-13 13:57:00.150446] 9
[2025-04-13 13:57:00.150446] 4
[2025-04-13 13:57:00.159118] 81
[2025-04-13 13:57:00.159118] 196
[2025-04-13 13:57:00.159118] 289
[2025-04-13 13:57:00.159118] 256
[2025-04-13 13:57:00.159118] 121
[2025-04-13 13:57:00.159118] 16
[2025-04-13 13:57:00.159118] 4
[2025-04-13 13:57:00.166274] 64
[2025-04-13 13:57:00.167131] 169
[2025-04-13 13:57:00.167131] 225
[2025-04-13 13:57:00.167131] 256
[2025-04-13 13:57:00.167131] 225
[2025-04-13 13:57:00.167131] 196
[2025-04-13 13:57:00.176085] 121
[2025-04-13 13:57:00.176085] 49
[2025-04-13 13:57:00.176085] 9
[2025-04-13 13:57:00.176085] 9
[2025-04-13 13:57:00.176085] 81
[2025-04-13 13:57:00.176085] 225
[2025-04-13 13:57:00.176085] 289
[2025-04-13 13:57:00.176085] 256
[2025-04-13 13:57:00.185573] 100
[2025-04-13 13:57:00.185573] 16
[2025-04-13 13:57:00.185573] 4
[2025-04-13 13:57:00.186589] 64
[2025-04-13 13:57:00.186589] 144
[2025-04-13 13:57:00.186589] 196
[2025-04-13 13:57:00.186589] 256
[2025-04-13 13:57:00.192560] 256
[2025-04-13 13:57:00.192560] 169
[2025-04-13 13:57:00.192560] 100
[2025-04-13 13:57:00.192560] 36
[2025-04-13 13:57:00.193554] 0
[2025-04-13 13:57:00.193554] 16
[2025-04-13 13:57:00.193554] 100
[2025-04-13 13:57:00.201450] 169
[2025-04-13 13:57:00.201450] 225
[2025-04-13 13:57:00.201450] 169
[2025-04-13 13:57:00.201450] 64
[2025-04-13 13:57:00.201450] 1
[2025-04-13 13:57:00.201450] 25
[2025-04-13 13:57:00.201450] 100
[2025-04-13 13:57:00.201450] 169
[2025-04-13 13:57:00.210014] 225
[2025-04-13 13:57:00.210873] 256
[2025-04-13 13:57:00.210873] 196
[2025-04-13 13:57:00.210873] 121
[2025-04-13 13:57:00.210873] 64
[2025-04-13 13:57:00.210873] 16
[2025-04-13 13:57:00.210873] 4
[2025-04-13 13:57:00.218873] 64
[2025-04-13 13:57:00.218873] 169
[2025-04-13 13:57:00.218873] 256
[2025-04-13 13:57:00.218873] 256
[2025-04-13 13:57:00.218873] 144
[2025-04-13 13:57:00.219893] 25
[2025-04-13 13:57:00.219893] 1
[2025-04-13 13:57:00.226761] 49
[2025-04-13 13:57:00.226761] 144
[2025-04-13 13:57:00.226761] 256
[2025-04-13 13:57:00.226761] 256
[2025-04-13 13:57:00.227746] 256
[2025-04-13 13:57:00.227746] 196
[2025-04-13 13:57:00.227746] 121
[2025-04-13 13:57:00.235753] 64
[2025-04-13 13:57:00.235753] 9
[2025-04-13 13:57:00.235753] 4
[2025-04-13 13:57:00.235753] 81
[2025-04-13 13:57:00.235753] 196
[2025-04-13 13:57:00.235753] 289
[2025-04-13 13:57:00.235753] 256
[2025-04-13 13:57:00.244235] 121
[2025-04-13 13:57:00.244235] 25
[2025-04-13 13:57:00.244235] 1
[2025-04-13 13:57:00.244235] 64
[2025-04-13 13:57:00.244235] 144
[2025-04-13 13:57:00.244755] 256
[2025-04-13 13:57:00.244755] 289
[2025-04-13 13:57:00.253507] 256
[2025-04-13 13:57:00.253820] 225
[2025-04-13 13:57:00.253820] 144
[2025-04-13 13:57:00.253820] 81
[2025-04-13 13:57:00.253820] 9
[2025-04-13 13:57:00.253820] 9
[2025-04-13 13:57:00.253820] 121
[2025-04-13 13:57:00.253820] 256
[2025-04-13 13:57:00.261946] 361
[2025-04-13 13:57:00.261946] 289
[2025-04-13 13:57:00.261946] 121
[2025-04-13 13:57:00.261946] 16
[2025-04-13 13:57:00.261946] 4
[2025-04-13 13:57:00.262955] 64
[2025-04-13 13:57:00.262955] 169
[2025-04-13 13:57:00.269948] 256
[2025-04-13 13:57:00.269948] 289
[2025-04-13 13:57:00.269948] 256
[2025-04-13 13:57:00.269948] 196
[2025-04-13 13:57:00.269948] 144
[2025-04-13 13:57:00.269948] 64
[2025-04-13 13:57:00.269948] 1
[2025-04-13 13:57:00.278586] 25
[2025-04-13 13:57:00.279570] 121
[2025-04-13 13:57:00.279570] 256
[2025-04-13 13:57:00.279570] 289
[2025-04-13 13:57:00.279570] 196
[2025-04-13 13:57:00.279570] 81
[2025-04-13 13:57:00.279570] 9
[2025-04-13 13:57:00.279570] 9
[2025-04-13 13:57:00.286703] 100
[2025-04-13 13:57:00.286703] 169
[2025-04-13 13:57:00.287598] 225
[2025-04-13 13:57:00.287598] 256
[2025-04-13 13:57:00.287598] 196
[2025-04-13 13:57:00.287598] 144
[2025-04-13 13:57:00.295380] 81
[2025-04-13 13:57:00.295380] 25
[2025-04-13 13:57:00.295380] 0
[2025-04-13 13:57:00.295380] 25
[2025-04-13 13:57:00.295380] 121
[2025-04-13 13:57:00.295380] 196
[2025-04-13 13:57:00.295380] 225
[2025-04-13 13:57:00.303529] 144
[2025-04-13 13:57:00.304387] 49
[2025-04-13 13:57:00.304387] 0
[2025-04-13 13:57:00.304387] 25
[2025-04-13 13:57:00.304387] 121
[2025-04-13 13:57:00.304387] 169
[2025-04-13 13:57:00.304387] 225
[2025-04-13 13:57:00.304387] 256
[2025-04-13 13:57:00.313409] 169
[2025-04-13 13:57:00.313409] 100
[2025-04-13 13:57:00.313409] 49
[2025-04-13 13:57:00.313409] 9
[2025-04-13 13:57:00.313409] 1
[2025-04-13 13:57:00.314414] 64
[2025-04-13 13:57:00.314414] 144
[2025-04-13 13:57:00.321407] 196
[2025-04-13 13:57:00.321407] 196
[2025-04-13 13:57:00.322402] 100
[2025-04-13 13:57:00.322402] 16
[2025-04-13 13:57:00.322402] 4
[2025-04-13 13:57:00.322402] 49
[2025-04-13 13:57:00.322402] 121
[2025-04-13 13:57:00.329401] 196
[2025-04-13 13:57:00.330401] 225
[2025-04-13 13:57:00.330401] 225
[2025-04-13 13:57:00.330401] 169
[2025-04-13 13:57:00.330401] 100
[2025-04-13 13:57:00.330401] 49
[2025-04-13 13:57:00.330401] 1
[2025-04-13 13:57:00.330401] 16
[2025-04-13 13:57:00.338619] 100
[2025-04-13 13:57:00.339644] 225
[2025-04-13 13:57:00.339644] 256
[2025-04-13 13:57:00.339644] 196
[2025-04-13 13:57:00.339644] 81
[2025-04-13 13:57:00.339644] 4
[2025-04-13 13:57:00.339644] 16
[2025-04-13 13:57:00.346833] 81
[2025-04-13 13:57:00.346833] 144
[2025-04-13 13:57:00.346833] 196
[2025-04-13 13:57:00.346833] 225
[2025-04-13 13:57:00.346833] 256
[2025-04-13 13:57:00.346833] 169
[2025-04-13 13:57:00.354800] 100
[2025-04-13 13:57:00.354800] 36
[2025-04-13 13:57:00.354800] 0
[2025-04-13 13:57:00.355833] 25
[2025-04-13 13:57:00.355833] 121
[2025-04-13 13:57:00.355833] 225
[2025-04-13 13:57:00.355833] 289
[2025-04-13 13:57:00.355833] 196
[2025-04-13 13:57:00.364815] 81
[2025-04-13 13:57:00.364815] 1
[2025-04-13 13:57:00.364815] 25
[2025-04-13 13:57:00.364815] 121
[2025-04-13 13:57:00.364815] 196
[2025-04-13 13:57:00.364815] 256
[2025-04-13 13:57:00.364815] 256
[2025-04-13 13:57:00.372879] 225
[2025-04-13 13:57:00.372879] 144
[2025-04-13 13:57:00.372879] 81
[2025-04-13 13:57:00.372879] 25
[2025-04-13 13:57:00.372879] 0
[2025-04-13 13:57:00.373768] 49
[2025-04-13 13:57:00.373768] 169
[2025-04-13 13:57:00.381734] 289
[2025-04-13 13:57:00.381734] 289
[2025-04-13 13:57:00.381734] 169
[2025-04-13 13:57:00.381734] 49
[2025-04-13 13:57:00.381734] 0
[2025-04-13 13:57:00.381734] 36
[2025-04-13 13:57:00.381734] 144
[2025-04-13 13:57:00.389968] 196
[2025-04-13 13:57:00.389968] 256
[2025-04-13 13:57:00.389968] 256
[2025-04-13 13:57:00.389968] 225
[2025-04-13 13:57:00.389968] 121
[2025-04-13 13:57:00.389968] 64
[2025-04-13 13:57:00.389968] 16
[2025-04-13 13:57:00.389968] 1
[2025-04-13 13:57:00.399351] 49
[2025-04-13 13:57:00.399351] 169
[2025-04-13 13:57:00.399351] 256
[2025-04-13 13:57:00.399351] 196
[2025-04-13 13:57:00.399351] 121
[2025-04-13 13:57:00.399351] 25
[2025-04-13 13:57:00.399351] 0
[2025-04-13 13:57:00.406357] 49
[2025-04-13 13:57:00.407352] 121
[2025-04-13 13:57:00.407352] 225
[2025-04-13 13:57:00.407352] 256
[2025-04-13 13:57:00.407352] 225
[2025-04-13 13:57:00.408369] 169
[2025-04-13 13:57:00.415171] 121
[2025-04-13 13:57:00.415171] 64
[2025-04-13 13:57:00.415171] 4
[2025-04-13 13:57:00.415171] 16
[2025-04-13 13:57:00.415171] 100
[2025-04-13 13:57:00.415171] 225
[2025-04-13 13:57:00.415171] 289
[2025-04-13 13:57:00.415171] 225
[2025-04-13 13:57:00.423869] 100
[2025-04-13 13:57:00.424728] 16
[2025-04-13 13:57:00.424728] 4
[2025-04-13 13:57:00.424728] 81
[2025-04-13 13:57:00.424728] 169
[2025-04-13 13:57:00.424728] 225
[2025-04-13 13:57:00.424728] 289
[2025-04-13 13:57:00.432871] 256
[2025-04-13 13:57:00.432871] 196
[2025-04-13 13:57:00.432871] 121
[2025-04-13 13:57:00.432871] 36
[2025-04-13 13:57:00.432871] 0
[2025-04-13 13:57:00.432871] 36
[2025-04-13 13:57:00.432871] 121
[2025-04-13 13:57:00.441017] 256
[2025-04-13 13:57:00.441017] 289
[2025-04-13 13:57:00.441017] 169
[2025-04-13 13:57:00.441017] 64
[2025-04-13 13:57:00.441017] 0
[2025-04-13 13:57:00.441017] 36
[2025-04-13 13:57:00.441017] 121
[2025-04-13 13:57:00.449690] 196
[2025-04-13 13:57:00.449690] 225
[2025-04-13 13:57:00.449690] 225
[2025-04-13 13:57:00.449690] 169
[2025-04-13 13:57:00.449690] 121
[2025-04-13 13:57:00.449690] 64
[2025-04-13 13:57:00.449690] 16
[2025-04-13 13:57:00.457677] 1
[2025-04-13 13:57:00.457677] 36
[2025-04-13 13:57:00.457677] 144
[2025-04-13 13:57:00.457677] 225
[2025-04-13 13:57:00.458561] 256
[2025-04-13 13:57:00.458561] 169
[2025-04-13 13:57:00.458561] 49
[2025-04-13 13:57:00.458561] 0
[2025-04-13 13:57:00.465789] 49
[2025-04-13 13:57:00.466791] 144
[2025-04-13 13:57:00.466791] 196
[2025-04-13 13:57:00.466791] 256
[2025-04-13 13:57:00.466791] 289
[2025-04-13 13:57:00.466791] 196
[2025-04-13 13:57:00.475501] 121
[2025-04-13 13:57:00.475501] 64
[2025-04-13 13:57:00.475501] 9
[2025-04-13 13:57:00.475501] 4
[2025-04-13 13:57:00.475501] 64
[2025-04-13 13:57:00.475501] 196
[2025-04-13 13:57:00.476401] 289
[2025-04-13 13:57:00.476401] 256
[2025-04-13 13:57:00.484373] 144
[2025-04-13 13:57:00.484373] 16
[2025-04-13 13:57:00.484373] 4
[2025-04-13 13:57:00.484373] 64
[2025-04-13 13:57:00.484373] 144
[2025-04-13 13:57:00.484373] 196
[2025-04-13 13:57:00.484373] 256
[2025-04-13 13:57:00.492803] 289
[2025-04-13 13:57:00.492803] 225
[2025-04-13 13:57:00.492803] 121
[2025-04-13 13:57:00.492803] 64
[2025-04-13 13:57:00.492803] 4
[2025-04-13 13:57:00.492803] 16
[2025-04-13 13:57:00.492803] 121
[2025-04-13 13:57:00.501239] 256
[2025-04-13 13:57:00.502197] 289
[2025-04-13 13:57:00.502197] 196
[2025-04-13 13:57:00.502197] 81
[2025-04-13 13:57:00.502197] 4
[2025-04-13 13:57:00.502197] 9
[2025-04-13 13:57:00.502197] 81
[2025-04-13 13:57:00.502197] 169
[2025-04-13 13:57:00.510208] 256
[2025-04-13 13:57:00.510208] 289
[2025-04-13 13:57:00.510208] 225
[2025-04-13 13:57:00.510208] 169
[2025-04-13 13:57:00.511196] 100
[2025-04-13 13:57:00.511196] 36
[2025-04-13 13:57:00.511196] 0
[2025-04-13 13:57:00.518644] 36
[2025-04-13 13:57:00.518999] 121
[2025-04-13 13:57:00.518999] 256
[2025-04-13 13:57:00.518999] 289
[2025-04-13 13:57:00.518999] 144
[2025-04-13 13:57:00.518999] 49
[2025-04-13 13:57:00.518999] 0
[2025-04-13 13:57:00.525485] 16
[2025-04-13 13:57:00.526499] 100
[2025-04-13 13:57:00.526499] 169
[2025-04-13 13:57:00.526499] 256
[2025-04-13 13:57:00.526499] 256
[2025-04-13 13:57:00.527499] 225
[2025-04-13 13:57:00.527499] 121
[2025-04-13 13:57:00.535507] 64
[2025-04-13 13:57:00.535507] 16
[2025-04-13 13:57:00.535507] 1
[2025-04-13 13:57:00.535507] 49
[2025-04-13 13:57:00.535507] 144
[2025-04-13 13:57:00.535507] 225
[2025-04-13 13:57:00.535507] 256
[2025-04-13 13:57:00.544129] 169
[2025-04-13 13:57:00.544129] 36
[2025-04-13 13:57:00.544129] 1
[2025-04-13 13:57:00.544129] 49
[2025-04-13 13:57:00.544129] 121
[2025-04-13 13:57:00.544129] 196
[2025-04-13 13:57:00.544129] 256
[2025-04-13 13:57:00.552127] 256
[2025-04-13 13:57:00.552127] 196
[2025-04-13 13:57:00.552127] 144
[2025-04-13 13:57:00.552127] 81
[2025-04-13 13:57:00.552127] 16
[2025-04-13 13:57:00.552127] 4
[2025-04-13 13:57:00.552127] 64
[2025-04-13 13:57:00.552127] 196
[2025-04-13 13:57:00.561639] 256
[2025-04-13 13:57:00.561639] 256
[2025-04-13 13:57:00.561639] 144
[2025-04-13 13:57:00.561639] 25
[2025-04-13 13:57:00.561639] 0
[2025-04-13 13:57:00.561639] 49
[2025-04-13 13:57:00.561639] 144
[2025-04-13 13:57:00.569643] 225
[2025-04-13 13:57:00.569643] 256
[2025-04-13 13:57:00.569643] 225
[2025-04-13 13:57:00.569643] 196
[2025-04-13 13:57:00.569643] 121
[2025-04-13 13:57:00.569643] 64
[2025-04-13 13:57:00.570644] 9
[2025-04-13 13:57:00.577652] 9
[2025-04-13 13:57:00.578644] 100
[2025-04-13 13:57:00.578644] 196
[2025-04-13 13:57:00.578644] 256
[2025-04-13 13:57:00.578644] 225
[2025-04-13 13:57:00.578644] 121
[2025-04-13 13:57:00.578644] 16
[2025-04-13 13:57:00.586982] 4
[2025-04-13 13:57:00.586982] 64
[2025-04-13 13:57:00.586982] 144
[2025-04-13 13:57:00.586982] 256
[2025-04-13 13:57:00.586982] 256
[2025-04-13 13:57:00.586982] 225
[2025-04-13 13:57:00.586982] 169
[2025-04-13 13:57:00.594899] 100
[2025-04-13 13:57:00.594899] 36
[2025-04-13 13:57:00.594899] 0
[2025-04-13 13:57:00.595898] 36
[2025-04-13 13:57:00.595898] 121
[2025-04-13 13:57:00.595898] 256
[2025-04-13 13:57:00.595898] 256
[2025-04-13 13:57:00.602904] 196
[2025-04-13 13:57:00.603897] 64
[2025-04-13 13:57:00.603897] 1
[2025-04-13 13:57:00.603897] 25
[2025-04-13 13:57:00.603897] 100
[2025-04-13 13:57:00.604917] 196
[2025-04-13 13:57:00.604917] 256
[2025-04-13 13:57:00.611895] 256
[2025-04-13 13:57:00.611895] 256
[2025-04-13 13:57:00.611895] 144
[2025-04-13 13:57:00.611895] 100
[2025-04-13 13:57:00.611895] 25
[2025-04-13 13:57:00.611895] 0
[2025-04-13 13:57:00.612896] 36
[2025-04-13 13:57:00.619766] 144
[2025-04-13 13:57:00.620814] 256
[2025-04-13 13:57:00.620814] 256
[2025-04-13 13:57:00.620814] 144
[2025-04-13 13:57:00.620814] 36
[2025-04-13 13:57:00.620814] 0
[2025-04-13 13:57:00.620814] 36
[2025-04-13 13:57:00.620814] 100
[2025-04-13 13:57:00.628773] 196
[2025-04-13 13:57:00.628773] 289
[2025-04-13 13:57:00.628773] 289
[2025-04-13 13:57:00.628773] 225
[2025-04-13 13:57:00.628773] 144
[2025-04-13 13:57:00.628773] 64
[2025-04-13 13:57:00.628773] 9
[2025-04-13 13:57:00.637804] 16
[2025-04-13 13:57:00.637804] 100
[2025-04-13 13:57:00.637804] 196
[2025-04-13 13:57:00.637804] 256
[2025-04-13 13:57:00.637804] 196
[2025-04-13 13:57:00.637804] 81
[2025-04-13 13:57:00.638796] 9
[2025-04-13 13:57:00.646727] 4
[2025-04-13 13:57:00.646727] 64
[2025-04-13 13:57:00.646727] 121
[2025-04-13 13:57:00.646727] 169
[2025-04-13 13:57:00.646727] 225
[2025-04-13 13:57:00.646727] 225
[2025-04-13 13:57:00.646727] 169
[2025-04-13 13:57:00.654740] 121
[2025-04-13 13:57:00.654740] 64
[2025-04-13 13:57:00.654740] 4
[2025-04-13 13:57:00.654740] 16
[2025-04-13 13:57:00.654740] 121
[2025-04-13 13:57:00.654740] 225
[2025-04-13 13:57:00.654740] 289
[2025-04-13 13:57:00.663670] 196
[2025-04-13 13:57:00.663670] 81
[2025-04-13 13:57:00.663670] 4
[2025-04-13 13:57:00.663670] 16
[2025-04-13 13:57:00.663670] 81
[2025-04-13 13:57:00.663670] 169
[2025-04-13 13:57:00.663670] 225
[2025-04-13 13:57:00.671340] 256
[2025-04-13 13:57:00.671340] 225
[2025-04-13 13:57:00.672343] 169
[2025-04-13 13:57:00.672343] 100
[2025-04-13 13:57:00.672343] 25
[2025-04-13 13:57:00.672343] 0
[2025-04-13 13:57:00.672343] 36
[2025-04-13 13:57:00.672343] 121
[2025-04-13 13:57:00.680740] 225
[2025-04-13 13:57:00.680740] 256
[2025-04-13 13:57:00.680740] 169
[2025-04-13 13:57:00.680740] 64
[2025-04-13 13:57:00.681740] 4
[2025-04-13 13:57:00.681740] 16
[2025-04-13 13:57:00.681740] 100
[2025-04-13 13:57:00.688741] 169
[2025-04-13 13:57:00.688741] 256
[2025-04-13 13:57:00.688741] 256
[2025-04-13 13:57:00.688741] 225
[2025-04-13 13:57:00.688741] 169
[2025-04-13 13:57:00.688741] 100
[2025-04-13 13:57:00.697072] 25
[2025-04-13 13:57:00.697072] 0
[2025-04-13 13:57:00.697072] 36
[2025-04-13 13:57:00.697072] 144
[2025-04-13 13:57:00.697072] 256
[2025-04-13 13:57:00.698105] 256
[2025-04-13 13:57:00.698105] 169
[2025-04-13 13:57:00.698105] 36
[2025-04-13 13:57:00.705359] 0
[2025-04-13 13:57:00.705359] 49
[2025-04-13 13:57:00.705359] 144
[2025-04-13 13:57:00.705359] 225
[2025-04-13 13:57:00.705359] 289
[2025-04-13 13:57:00.705359] 256
[2025-04-13 13:57:00.706293] 169
[2025-04-13 13:57:00.714443] 100
[2025-04-13 13:57:00.715293] 49
[2025-04-13 13:57:00.715293] 4
[2025-04-13 13:57:00.715293] 9
[2025-04-13 13:57:00.715293] 81
[2025-04-13 13:57:00.715293] 196
[2025-04-13 13:57:00.715293] 256
[2025-04-13 13:57:00.723556] 256
[2025-04-13 13:57:00.723556] 121
[2025-04-13 13:57:00.723556] 16
[2025-04-13 13:57:00.723556] 9
[2025-04-13 13:57:00.723556] 81
[2025-04-13 13:57:00.723556] 169
[2025-04-13 13:57:00.723556] 225
[2025-04-13 13:57:00.731679] 256
[2025-04-13 13:57:00.731679] 225
[2025-04-13 13:57:00.731679] 196
[2025-04-13 13:57:00.731679] 100
[2025-04-13 13:57:00.731679] 49
[2025-04-13 13:57:00.731679] 1
[2025-04-13 13:57:00.731679] 16
[2025-04-13 13:57:00.731679] 121
[2025-04-13 13:57:00.739707] 225
[2025-04-13 13:57:00.739707] 289
[2025-04-13 13:57:00.739707] 225
[2025-04-13 13:57:00.740595] 100
[2025-04-13 13:57:00.740595] 4
[2025-04-13 13:57:00.740595] 16
[2025-04-13 13:57:00.740595] 100
[2025-04-13 13:57:00.748530] 196
[2025-04-13 13:57:00.748711] 256
[2025-04-13 13:57:00.748711] 289
[2025-04-13 13:57:00.748711] 225
[2025-04-13 13:57:00.748711] 169
[2025-04-13 13:57:00.748711] 100
[2025-04-13 13:57:00.756347] 36
[2025-04-13 13:57:00.756347] 0
[2025-04-13 13:57:00.757204] 36
[2025-04-13 13:57:00.757204] 121
[2025-04-13 13:57:00.757204] 256
[2025-04-13 13:57:00.757204] 289
[2025-04-13 13:57:00.757204] 169
[2025-04-13 13:57:00.765348] 64
[2025-04-13 13:57:00.765348] 1
[2025-04-13 13:57:00.765348] 36
[2025-04-13 13:57:00.765348] 121
[2025-04-13 13:57:00.765348] 196
[2025-04-13 13:57:00.765348] 256
[2025-04-13 13:57:00.765348] 256
[2025-04-13 13:57:00.774754] 196
[2025-04-13 13:57:00.774754] 121
[2025-04-13 13:57:00.774754] 64
[2025-04-13 13:57:00.774754] 16
[2025-04-13 13:57:00.775746] 1
[2025-04-13 13:57:00.775746] 49
[2025-04-13 13:57:00.775746] 169
[2025-04-13 13:57:00.775746] 256
[2025-04-13 13:57:00.782809] 256
[2025-04-13 13:57:00.782809] 121
[2025-04-13 13:57:00.783746] 36
[2025-04-13 13:57:00.783746] 1
[2025-04-13 13:57:00.783746] 49
[2025-04-13 13:57:00.783746] 144
[2025-04-13 13:57:00.783746] 225
[2025-04-13 13:57:00.791517] 289
[2025-04-13 13:57:00.791517] 289
[2025-04-13 13:57:00.791517] 196
[2025-04-13 13:57:00.791517] 121
[2025-04-13 13:57:00.791517] 49
[2025-04-13 13:57:00.792404] 4
[2025-04-13 13:57:00.792404] 16
[2025-04-13 13:57:00.799969] 100
[2025-04-13 13:57:00.799969] 225
[2025-04-13 13:57:00.799969] 324
[2025-04-13 13:57:00.799969] 225
[2025-04-13 13:57:00.799969] 100
[2025-04-13 13:57:00.799969] 9
[2025-04-13 13:57:00.799969] 9
[2025-04-13 13:57:00.799969] 81
[2025-04-13 13:57:00.807963] 169
[2025-04-13 13:57:00.807963] 225
[2025-04-13 13:57:00.807963] 289
[2025-04-13 13:57:00.807963] 256
[2025-04-13 13:57:00.807963] 169
[2025-04-13 13:57:00.807963] 121
[2025-04-13 13:57:00.816700] 49
[2025-04-13 13:57:00.816700] 4
[2025-04-13 13:57:00.816700] 16
[2025-04-13 13:57:00.816700] 121
[2025-04-13 13:57:00.816700] 256
[2025-04-13 13:57:00.816700] 289
[2025-04-13 13:57:00.816700] 225
[2025-04-13 13:57:00.825155] 81
[2025-04-13 13:57:00.825155] 4
[2025-04-13 13:57:00.825155] 16
[2025-04-13 13:57:00.825155] 81
[2025-04-13 13:57:00.825155] 169
[2025-04-13 13:57:00.825155] 256
[2025-04-13 13:57:00.825155] 256
[2025-04-13 13:57:00.825155] 256
[2025-04-13 13:57:00.834156] 144
[2025-04-13 13:57:00.834156] 81
[2025-04-13 13:57:00.834156] 25
[2025-04-13 13:57:00.834156] 0
[2025-04-13 13:57:00.834156] 36
[2025-04-13 13:57:00.834156] 144
[2025-04-13 13:57:00.834156] 225
[2025-04-13 13:57:00.842666] 225
[2025-04-13 13:57:00.842666] 144
[2025-04-13 13:57:00.842666] 36
[2025-04-13 13:57:00.842666] 0
[2025-04-13 13:57:00.842666] 25
[2025-04-13 13:57:00.842666] 100
[2025-04-13 13:57:00.842666] 196
[2025-04-13 13:57:00.851705] 256
[2025-04-13 13:57:00.851705] 289
[2025-04-13 13:57:00.851705] 225
[2025-04-13 13:57:00.851705] 144
[2025-04-13 13:57:00.851705] 64
[2025-04-13 13:57:00.852707] 9
[2025-04-13 13:57:00.852707] 1
[2025-04-13 13:57:00.852707] 64
[2025-04-13 13:57:00.860673] 169
[2025-04-13 13:57:00.860673] 225
[2025-04-13 13:57:00.860673] 225
[2025-04-13 13:57:00.860673] 144
[2025-04-13 13:57:00.860673] 25
[2025-04-13 13:57:00.860673] 0
[2025-04-13 13:57:00.860673] 36
[2025-04-13 13:57:00.868173] 121
[2025-04-13 13:57:00.868173] 196
[2025-04-13 13:57:00.868173] 256
[2025-04-13 13:57:00.868173] 256
[2025-04-13 13:57:00.869195] 196
[2025-04-13 13:57:00.869195] 121
[2025-04-13 13:57:00.869195] 64
[2025-04-13 13:57:00.877316] 9
[2025-04-13 13:57:00.877316] 9
[2025-04-13 13:57:00.877316] 81
[2025-04-13 13:57:00.877316] 196
[2025-04-13 13:57:00.877316] 289
[2025-04-13 13:57:00.877316] 225
[2025-04-13 13:57:00.878205] 121
[2025-04-13 13:57:00.885924] 25
[2025-04-13 13:57:00.885924] 1
[2025-04-13 13:57:00.885924] 64
[2025-04-13 13:57:00.885924] 144
[2025-04-13 13:57:00.885924] 225
[2025-04-13 13:57:00.886964] 289
[2025-04-13 13:57:00.886964] 256
[2025-04-13 13:57:00.894208] 169
[2025-04-13 13:57:00.894208] 121
[2025-04-13 13:57:00.894208] 49
[2025-04-13 13:57:00.894208] 1
[2025-04-13 13:57:00.894208] 25
[2025-04-13 13:57:00.894208] 121
[2025-04-13 13:57:00.894208] 196
[2025-04-13 13:57:00.903274] 256
[2025-04-13 13:57:00.903274] 169
[2025-04-13 13:57:00.903274] 64
[2025-04-13 13:57:00.903274] 4
[2025-04-13 13:57:00.903274] 16
[2025-04-13 13:57:00.903274] 81
[2025-04-13 13:57:00.903274] 144
[2025-04-13 13:57:00.903274] 196
[2025-04-13 13:57:00.911154] 256
[2025-04-13 13:57:00.912142] 225
[2025-04-13 13:57:00.912142] 144
[2025-04-13 13:57:00.912142] 100
[2025-04-13 13:57:00.912142] 36
[2025-04-13 13:57:00.912142] 0
[2025-04-13 13:57:00.912142] 36
[2025-04-13 13:57:00.920232] 144
[2025-04-13 13:57:00.920232] 225
[2025-04-13 13:57:00.920232] 225
[2025-04-13 13:57:00.920232] 144
[2025-04-13 13:57:00.920232] 36
[2025-04-13 13:57:00.920232] 0
[2025-04-13 13:57:00.920232] 36
[2025-04-13 13:57:00.928318] 100
[2025-04-13 13:57:00.928318] 169
[2025-04-13 13:57:00.928318] 225
[2025-04-13 13:57:00.929210] 225
[2025-04-13 13:57:00.929210] 225
[2025-04-13 13:57:00.929210] 144
[2025-04-13 13:57:00.929210] 81
[2025-04-13 13:57:00.936607] 25
[2025-04-13 13:57:00.936607] 1
[2025-04-13 13:57:00.937468] 64
[2025-04-13 13:57:00.937468] 169
[2025-04-13 13:57:00.937468] 256
[2025-04-13 13:57:00.937468] 256
[2025-04-13 13:57:00.937468] 144
[2025-04-13 13:57:00.945574] 36
[2025-04-13 13:57:00.945574] 0
[2025-04-13 13:57:00.945574] 49
[2025-04-13 13:57:00.945574] 121
[2025-04-13 13:57:00.945574] 225
[2025-04-13 13:57:00.945574] 256
[2025-04-13 13:57:00.945574] 289
[2025-04-13 13:57:00.954940] 196
[2025-04-13 13:57:00.954940] 121
[2025-04-13 13:57:00.954940] 64
[2025-04-13 13:57:00.954940] 9
[2025-04-13 13:57:00.954940] 4
[2025-04-13 13:57:00.954940] 64
[2025-04-13 13:57:00.954940] 169
[2025-04-13 13:57:00.954940] 289
[2025-04-13 13:57:00.962880] 256
[2025-04-13 13:57:00.962880] 144
[2025-04-13 13:57:00.962880] 16
[2025-04-13 13:57:00.963871] 4
[2025-04-13 13:57:00.963871] 81
[2025-04-13 13:57:00.963871] 169
[2025-04-13 13:57:00.963871] 225
[2025-04-13 13:57:00.971872] 256
[2025-04-13 13:57:00.971872] 225
[2025-04-13 13:57:00.971872] 196
[2025-04-13 13:57:00.971872] 121
[2025-04-13 13:57:00.971872] 49
[2025-04-13 13:57:00.971872] 4
[2025-04-13 13:57:00.971872] 16
[2025-04-13 13:57:00.980177] 100
[2025-04-13 13:57:00.980177] 225
[2025-04-13 13:57:00.980177] 289
[2025-04-13 13:57:00.980177] 196
[2025-04-13 13:57:00.980177] 100
[2025-04-13 13:57:00.980177] 9
[2025-04-13 13:57:00.980177] 9
[2025-04-13 13:57:00.980177] 81
[2025-04-13 13:57:00.988308] 169
[2025-04-13 13:57:00.988308] 256
[2025-04-13 13:57:00.988308] 256
[2025-04-13 13:57:00.988308] 256
[2025-04-13 13:57:00.988308] 169
[2025-04-13 13:57:00.988308] 121
[2025-04-13 13:57:00.996954] 36
[2025-04-13 13:57:00.996954] 0
[2025-04-13 13:57:00.996954] 36
[2025-04-13 13:57:00.996954] 144
[2025-04-13 13:57:00.996954] 289
[2025-04-13 13:57:00.996954] 256
[2025-04-13 13:57:00.996954] 169
[2025-04-13 13:57:01.005122] 49
[2025-04-13 13:57:01.005122] 1
[2025-04-13 13:57:01.005122] 25
[2025-04-13 13:57:01.005122] 100
[2025-04-13 13:57:01.005122] 169
[2025-04-13 13:57:01.005122] 225
[2025-04-13 13:57:01.006046] 289
[2025-04-13 13:57:01.014404] 225
[2025-04-13 13:57:01.014404] 169
[2025-04-13 13:57:01.014404] 81
[2025-04-13 13:57:01.014404] 16
[2025-04-13 13:57:01.014404] 1
[2025-04-13 13:57:01.014404] 49
[2025-04-13 13:57:01.014404] 169
[2025-04-13 13:57:01.014404] 225
[2025-04-13 13:57:01.023478] 225
[2025-04-13 13:57:01.024565] 121
[2025-04-13 13:57:01.024565] 36
[2025-04-13 13:57:01.024565] 0
[2025-04-13 13:57:01.024565] 25
[2025-04-13 13:57:01.024565] 100
[2025-04-13 13:57:01.024565] 144
[2025-04-13 13:57:01.031660] 225
[2025-04-13 13:57:01.031660] 256
[2025-04-13 13:57:01.031660] 225
[2025-04-13 13:57:01.031660] 169
[2025-04-13 13:57:01.031660] 64
[2025-04-13 13:57:01.031660] 9
[2025-04-13 13:57:01.031660] 4
[2025-04-13 13:57:01.031660] 81
[2025-04-13 13:57:01.040830] 196
[2025-04-13 13:57:01.040830] 256
[2025-04-13 13:57:01.040830] 256
[2025-04-13 13:57:01.040830] 121
[2025-04-13 13:57:01.040830] 25
[2025-04-13 13:57:01.040830] 1
[2025-04-13 13:57:01.040830] 64
[2025-04-13 13:57:01.047693] 144
[2025-04-13 13:57:01.048550] 225
[2025-04-13 13:57:01.048550] 225
[2025-04-13 13:57:01.048550] 225
[2025-04-13 13:57:01.048550] 169
[2025-04-13 13:57:01.048550] 121
[2025-04-13 13:57:01.056550] 64
[2025-04-13 13:57:01.056550] 9
[2025-04-13 13:57:01.056550] 16
[2025-04-13 13:57:01.056550] 121
[2025-04-13 13:57:01.056550] 225
[2025-04-13 13:57:01.056550] 289
[2025-04-13 13:57:01.057550] 256
[2025-04-13 13:57:01.057550] 81
[2025-04-13 13:57:01.065863] 4
[2025-04-13 13:57:01.065863] 16
[2025-04-13 13:57:01.065863] 81
[2025-04-13 13:57:01.065863] 144
[2025-04-13 13:57:01.065863] 196
[2025-04-13 13:57:01.065863] 225
[2025-04-13 13:57:01.065863] 225
[2025-04-13 13:57:01.073877] 144
[2025-04-13 13:57:01.073877] 100
[2025-04-13 13:57:01.073877] 36
[2025-04-13 13:57:01.073877] 0
[2025-04-13 13:57:01.074869] 25
[2025-04-13 13:57:01.074869] 100
[2025-04-13 13:57:01.074869] 225
[2025-04-13 13:57:01.082869] 256
[2025-04-13 13:57:01.082869] 169
[2025-04-13 13:57:01.082869] 49
[2025-04-13 13:57:01.082869] 0
[2025-04-13 13:57:01.082869] 36
[2025-04-13 13:57:01.082869] 100
[2025-04-13 13:57:01.082869] 196
[2025-04-13 13:57:01.090448] 256
[2025-04-13 13:57:01.091396] 225
[2025-04-13 13:57:01.091396] 196
[2025-04-13 13:57:01.091396] 121
[2025-04-13 13:57:01.091396] 64
[2025-04-13 13:57:01.091396] 16
[2025-04-13 13:57:01.091396] 1
[2025-04-13 13:57:01.091396] 49
[2025-04-13 13:57:01.100533] 144
[2025-04-13 13:57:01.100533] 256
[2025-04-13 13:57:01.100533] 225
[2025-04-13 13:57:01.101399] 121
[2025-04-13 13:57:01.101399] 25
[2025-04-13 13:57:01.101399] 1
[2025-04-13 13:57:01.101399] 49
[2025-04-13 13:57:01.108078] 144
[2025-04-13 13:57:01.108078] 196
[2025-04-13 13:57:01.108078] 256
[2025-04-13 13:57:01.108078] 225
[2025-04-13 13:57:01.108078] 196
[2025-04-13 13:57:01.108078] 100
[2025-04-13 13:57:01.117193] 64
[2025-04-13 13:57:01.118172] 9
[2025-04-13 13:57:01.118172] 9
[2025-04-13 13:57:01.118172] 81
[2025-04-13 13:57:01.118172] 196
[2025-04-13 13:57:01.118172] 256
[2025-04-13 13:57:01.118172] 256
[2025-04-13 13:57:01.118172] 121
[2025-04-13 13:57:01.125306] 16
[2025-04-13 13:57:01.125306] 4
[2025-04-13 13:57:01.126195] 64
[2025-04-13 13:57:01.126195] 144
[2025-04-13 13:57:01.126195] 225
[2025-04-13 13:57:01.126195] 289
[2025-04-13 13:57:01.126195] 256
[2025-04-13 13:57:01.134288] 196
[2025-04-13 13:57:01.134288] 121
[2025-04-13 13:57:01.134288] 36
[2025-04-13 13:57:01.134288] 0
[2025-04-13 13:57:01.134288] 25
[2025-04-13 13:57:01.134288] 121
[2025-04-13 13:57:01.134288] 196
[2025-04-13 13:57:01.142350] 256
[2025-04-13 13:57:01.142350] 196
[2025-04-13 13:57:01.142350] 81
[2025-04-13 13:57:01.142350] 4
[2025-04-13 13:57:01.142350] 16
[2025-04-13 13:57:01.142350] 100
[2025-04-13 13:57:01.143243] 144
[2025-04-13 13:57:01.151213] 225
[2025-04-13 13:57:01.151213] 256
[2025-04-13 13:57:01.152212] 225
[2025-04-13 13:57:01.152212] 144
[2025-04-13 13:57:01.152212] 81
[2025-04-13 13:57:01.152212] 25
[2025-04-13 13:57:01.152212] 0
[2025-04-13 13:57:01.152212] 25
[2025-04-13 13:57:01.160218] 100
[2025-04-13 13:57:01.160218] 196
[2025-04-13 13:57:01.160218] 225
[2025-04-13 13:57:01.160218] 169
[2025-04-13 13:57:01.161210] 49
[2025-04-13 13:57:01.161210] 1
[2025-04-13 13:57:01.161210] 16
[2025-04-13 13:57:01.168614] 81
[2025-04-13 13:57:01.168614] 169
[2025-04-13 13:57:01.168614] 225
[2025-04-13 13:57:01.168614] 256
[2025-04-13 13:57:01.169135] 225
[2025-04-13 13:57:01.169135] 144
[2025-04-13 13:57:01.169135] 81
[2025-04-13 13:57:01.177148] 25
[2025-04-13 13:57:01.177148] 0
[2025-04-13 13:57:01.177148] 49
[2025-04-13 13:57:01.177148] 169
[2025-04-13 13:57:01.177148] 289
[2025-04-13 13:57:01.177148] 324
[2025-04-13 13:57:01.177148] 169
[2025-04-13 13:57:01.185751] 49
[2025-04-13 13:57:01.185751] 0
[2025-04-13 13:57:01.185751] 36
[2025-04-13 13:57:01.185751] 144
[2025-04-13 13:57:01.185751] 225
[2025-04-13 13:57:01.185751] 289
[2025-04-13 13:57:01.185751] 289
[2025-04-13 13:57:01.193792] 225
[2025-04-13 13:57:01.193792] 144
[2025-04-13 13:57:01.193792] 81
[2025-04-13 13:57:01.193792] 16
[2025-04-13 13:57:01.193792] 4
[2025-04-13 13:57:01.193792] 81
[2025-04-13 13:57:01.193792] 225
[2025-04-13 13:57:01.194686] 289
[2025-04-13 13:57:01.202659] 225
[2025-04-13 13:57:01.202659] 121
[2025-04-13 13:57:01.202659] 25
[2025-04-13 13:57:01.203652] 1
[2025-04-13 13:57:01.203652] 49
[2025-04-13 13:57:01.203652] 144
[2025-04-13 13:57:01.203652] 225
[2025-04-13 13:57:01.211836] 289
[2025-04-13 13:57:01.211836] 256
[2025-04-13 13:57:01.211836] 196
[2025-04-13 13:57:01.211836] 121
[2025-04-13 13:57:01.211836] 64
[2025-04-13 13:57:01.211836] 4
[2025-04-13 13:57:01.211836] 16
[2025-04-13 13:57:01.219916] 121
[2025-04-13 13:57:01.219916] 225
[2025-04-13 13:57:01.219916] 289
[2025-04-13 13:57:01.219916] 225
[2025-04-13 13:57:01.219916] 81
[2025-04-13 13:57:01.219916] 4
[2025-04-13 13:57:01.219916] 16
[2025-04-13 13:57:01.227915] 81
[2025-04-13 13:57:01.227915] 144
[2025-04-13 13:57:01.228772] 196
[2025-04-13 13:57:01.228772] 225
[2025-04-13 13:57:01.228772] 225
[2025-04-13 13:57:01.228772] 144
[2025-04-13 13:57:01.228772] 100
[2025-04-13 13:57:01.236062] 36
[2025-04-13 13:57:01.237070] 0
[2025-04-13 13:57:01.237070] 25
[2025-04-13 13:57:01.237070] 100
[2025-04-13 13:57:01.237070] 196
[2025-04-13 13:57:01.237070] 225
[2025-04-13 13:57:01.237070] 196
[2025-04-13 13:57:01.245232] 81
[2025-04-13 13:57:01.245232] 4
[2025-04-13 13:57:01.245232] 16
[2025-04-13 13:57:01.245232] 100
[2025-04-13 13:57:01.245232] 169
[2025-04-13 13:57:01.246276] 225
[2025-04-13 13:57:01.246276] 256
[2025-04-13 13:57:01.253278] 196
[2025-04-13 13:57:01.253278] 144
[2025-04-13 13:57:01.253278] 100
[2025-04-13 13:57:01.253278] 36
[2025-04-13 13:57:01.253278] 0
[2025-04-13 13:57:01.254260] 36
[2025-04-13 13:57:01.254260] 144
[2025-04-13 13:57:01.261267] 256
[2025-04-13 13:57:01.262260] 289
[2025-04-13 13:57:01.262260] 169
[2025-04-13 13:57:01.262260] 49
[2025-04-13 13:57:01.262260] 0
[2025-04-13 13:57:01.262260] 36
[2025-04-13 13:57:01.262260] 144
[2025-04-13 13:57:01.262260] 225
[2025-04-13 13:57:01.271444] 289
[2025-04-13 13:57:01.271444] 289
[2025-04-13 13:57:01.271444] 196
[2025-04-13 13:57:01.271444] 121
[2025-04-13 13:57:01.271444] 64
[2025-04-13 13:57:01.271444] 9
[2025-04-13 13:57:01.271444] 9
[2025-04-13 13:57:01.279937] 81
[2025-04-13 13:57:01.279937] 169
[2025-04-13 13:57:01.279937] 256
[2025-04-13 13:57:01.280870] 225
[2025-04-13 13:57:01.280870] 121
[2025-04-13 13:57:01.280870] 16
[2025-04-13 13:57:01.280870] 4
[2025-04-13 13:57:01.287840] 64
[2025-04-13 13:57:01.287840] 144
[2025-04-13 13:57:01.287840] 225
[2025-04-13 13:57:01.287840] 256
[2025-04-13 13:57:01.287840] 225
[2025-04-13 13:57:01.288878] 196
[2025-04-13 13:57:01.288878] 100
[2025-04-13 13:57:01.296777] 36
[2025-04-13 13:57:01.296777] 1
[2025-04-13 13:57:01.296777] 16
[2025-04-13 13:57:01.296777] 121
[2025-04-13 13:57:01.296777] 196
[2025-04-13 13:57:01.296777] 256
[2025-04-13 13:57:01.296777] 196
[2025-04-13 13:57:01.304650] 81
[2025-04-13 13:57:01.305638] 4
[2025-04-13 13:57:01.305638] 16
[2025-04-13 13:57:01.305638] 81
[2025-04-13 13:57:01.305638] 169
[2025-04-13 13:57:01.305638] 225
[2025-04-13 13:57:01.305638] 256
[2025-04-13 13:57:01.313649] 196
[2025-04-13 13:57:01.313649] 169
[2025-04-13 13:57:01.313649] 100
[2025-04-13 13:57:01.313649] 36
[2025-04-13 13:57:01.313649] 0
[2025-04-13 13:57:01.313649] 36
[2025-04-13 13:57:01.313649] 121
[2025-04-13 13:57:01.313649] 256
[2025-04-13 13:57:01.322794] 289
[2025-04-13 13:57:01.322794] 169
[2025-04-13 13:57:01.322794] 49
[2025-04-13 13:57:01.322794] 0
[2025-04-13 13:57:01.322794] 36
[2025-04-13 13:57:01.322794] 121
[2025-04-13 13:57:01.322794] 169
[2025-04-13 13:57:01.331263] 225
[2025-04-13 13:57:01.331263] 256
[2025-04-13 13:57:01.331263] 196
[2025-04-13 13:57:01.331263] 144
[2025-04-13 13:57:01.331263] 81
[2025-04-13 13:57:01.331263] 16
[2025-04-13 13:57:01.331263] 1
[2025-04-13 13:57:01.339223] 64
[2025-04-13 13:57:01.339223] 169
[2025-04-13 13:57:01.339223] 256
[2025-04-13 13:57:01.340227] 289
[2025-04-13 13:57:01.340227] 169
[2025-04-13 13:57:01.340227] 36
[2025-04-13 13:57:01.340227] 1
[2025-04-13 13:57:01.347222] 49
[2025-04-13 13:57:01.347222] 121
[2025-04-13 13:57:01.348211] 196
[2025-04-13 13:57:01.348211] 256
[2025-04-13 13:57:01.348211] 256
[2025-04-13 13:57:01.348211] 225
[2025-04-13 13:57:01.348211] 169
[2025-04-13 13:57:01.356287] 81
[2025-04-13 13:57:01.356287] 9
[2025-04-13 13:57:01.356287] 9
[2025-04-13 13:57:01.356287] 100
[2025-04-13 13:57:01.356287] 225
[2025-04-13 13:57:01.357281] 289
[2025-04-13 13:57:01.357281] 196
[2025-04-13 13:57:01.364414] 100
[2025-04-13 13:57:01.364414] 4
[2025-04-13 13:57:01.364414] 9
[2025-04-13 13:57:01.364414] 64
[2025-04-13 13:57:01.364414] 144
[2025-04-13 13:57:01.364414] 225
[2025-04-13 13:57:01.364414] 225
[2025-04-13 13:57:01.365393] 225
[2025-04-13 13:57:01.373363] 169
[2025-04-13 13:57:01.373363] 121
[2025-04-13 13:57:01.374356] 49
[2025-04-13 13:57:01.374356] 1
[2025-04-13 13:57:01.374356] 16
[2025-04-13 13:57:01.374356] 100
[2025-04-13 13:57:01.374356] 225
[2025-04-13 13:57:01.382363] 289
[2025-04-13 13:57:01.382363] 196
[2025-04-13 13:57:01.382363] 81
[2025-04-13 13:57:01.382363] 4
[2025-04-13 13:57:01.382363] 16
[2025-04-13 13:57:01.382363] 81
[2025-04-13 13:57:01.383358] 169
[2025-04-13 13:57:01.390580] 225
[2025-04-13 13:57:01.391434] 289
[2025-04-13 13:57:01.391434] 225
[2025-04-13 13:57:01.391434] 169
[2025-04-13 13:57:01.391434] 81
[2025-04-13 13:57:01.391434] 25
[2025-04-13 13:57:01.391434] 0
[2025-04-13 13:57:01.391434] 36
[2025-04-13 13:57:01.400437] 121
[2025-04-13 13:57:01.400437] 225
[2025-04-13 13:57:01.400437] 256
[2025-04-13 13:57:01.400437] 169
[2025-04-13 13:57:01.400437] 64
[2025-04-13 13:57:01.400437] 1
[2025-04-13 13:57:01.400437] 25
[2025-04-13 13:57:01.407580] 100
[2025-04-13 13:57:01.407580] 169
[2025-04-13 13:57:01.407580] 225
[2025-04-13 13:57:01.407580] 256
[2025-04-13 13:57:01.407580] 196
[2025-04-13 13:57:01.408471] 144
[2025-04-13 13:57:01.416412] 81
[2025-04-13 13:57:01.416412] 25
[2025-04-13 13:57:01.416412] 0
[2025-04-13 13:57:01.416412] 36
[2025-04-13 13:57:01.416412] 144
[2025-04-13 13:57:01.416412] 256
[2025-04-13 13:57:01.416412] 256
[2025-04-13 13:57:01.416412] 169
[2025-04-13 13:57:01.425558] 36
[2025-04-13 13:57:01.425558] 0
[2025-04-13 13:57:01.425558] 36
[2025-04-13 13:57:01.425558] 100
[2025-04-13 13:57:01.425558] 196
[2025-04-13 13:57:01.425558] 256
[2025-04-13 13:57:01.425558] 256
[2025-04-13 13:57:01.433881] 225
[2025-04-13 13:57:01.433881] 144
[2025-04-13 13:57:01.433881] 81
[2025-04-13 13:57:01.433881] 16
[2025-04-13 13:57:01.433881] 0
[2025-04-13 13:57:01.433881] 49
[2025-04-13 13:57:01.433881] 144
[2025-04-13 13:57:01.442109] 256
[2025-04-13 13:57:01.442109] 256
[2025-04-13 13:57:01.442109] 144
[2025-04-13 13:57:01.443092] 49
[2025-04-13 13:57:01.443092] 0
[2025-04-13 13:57:01.443092] 36
[2025-04-13 13:57:01.443092] 121
[2025-04-13 13:57:01.450892] 196
[2025-04-13 13:57:01.450892] 256
[2025-04-13 13:57:01.451882] 256
[2025-04-13 13:57:01.451882] 225
[2025-04-13 13:57:01.451882] 144
[2025-04-13 13:57:01.451882] 64
[2025-04-13 13:57:01.451882] 4
[2025-04-13 13:57:01.451882] 9
[2025-04-13 13:57:01.459891] 81
[2025-04-13 13:57:01.459891] 196
[2025-04-13 13:57:01.459891] 289
[2025-04-13 13:57:01.460885] 256
[2025-04-13 13:57:01.460885] 121
[2025-04-13 13:57:01.460885] 16
[2025-04-13 13:57:01.460885] 9
[2025-04-13 13:57:01.467139] 81
[2025-04-13 13:57:01.467139] 169
[2025-04-13 13:57:01.467139] 256
[2025-04-13 13:57:01.468118] 256
[2025-04-13 13:57:01.468118] 256
[2025-04-13 13:57:01.468118] 169
[2025-04-13 13:57:01.468118] 100
[2025-04-13 13:57:01.476623] 36
[2025-04-13 13:57:01.476623] 0
[2025-04-13 13:57:01.476623] 25
[2025-04-13 13:57:01.476623] 121
[2025-04-13 13:57:01.476623] 225
[2025-04-13 13:57:01.477643] 289
[2025-04-13 13:57:01.477643] 196
[2025-04-13 13:57:01.485280] 49
[2025-04-13 13:57:01.485280] 1
[2025-04-13 13:57:01.485280] 36
[2025-04-13 13:57:01.485280] 100
[2025-04-13 13:57:01.485280] 196
[2025-04-13 13:57:01.485280] 225
[2025-04-13 13:57:01.485280] 225
[2025-04-13 13:57:01.493219] 196
[2025-04-13 13:57:01.494220] 144
[2025-04-13 13:57:01.494220] 100
[2025-04-13 13:57:01.494220] 25
[2025-04-13 13:57:01.494220] 1
[2025-04-13 13:57:01.494220] 49
[2025-04-13 13:57:01.494220] 169
[2025-04-13 13:57:01.501700] 256
[2025-04-13 13:57:01.501700] 256
[2025-04-13 13:57:01.501700] 121
[2025-04-13 13:57:01.501700] 36
[2025-04-13 13:57:01.501700] 1
[2025-04-13 13:57:01.501700] 49
[2025-04-13 13:57:01.501700] 121
[2025-04-13 13:57:01.509706] 196
[2025-04-13 13:57:01.509706] 225
[2025-04-13 13:57:01.510740] 256
[2025-04-13 13:57:01.510740] 196
[2025-04-13 13:57:01.510740] 121
[2025-04-13 13:57:01.510740] 64
[2025-04-13 13:57:01.510740] 16
[2025-04-13 13:57:01.510740] 1
[2025-04-13 13:57:01.519681] 64
[2025-04-13 13:57:01.519681] 169
[2025-04-13 13:57:01.519681] 289
[2025-04-13 13:57:01.519681] 225
[2025-04-13 13:57:01.519681] 121
[2025-04-13 13:57:01.519681] 25
[2025-04-13 13:57:01.519681] 4
[2025-04-13 13:57:01.526821] 64
[2025-04-13 13:57:01.526821] 144
[2025-04-13 13:57:01.527866] 196
[2025-04-13 13:57:01.527866] 256
[2025-04-13 13:57:01.527866] 225
[2025-04-13 13:57:01.527866] 196
[2025-04-13 13:57:01.536588] 121
[2025-04-13 13:57:01.536588] 49
[2025-04-13 13:57:01.536588] 4
[2025-04-13 13:57:01.536588] 9
[2025-04-13 13:57:01.536588] 81
[2025-04-13 13:57:01.536588] 169
[2025-04-13 13:57:01.537446] 225
[2025-04-13 13:57:01.537446] 225
[2025-04-13 13:57:01.544724] 100
[2025-04-13 13:57:01.544724] 16
[2025-04-13 13:57:01.544724] 4
[2025-04-13 13:57:01.544724] 64
[2025-04-13 13:57:01.544724] 144
[2025-04-13 13:57:01.545744] 196
[2025-04-13 13:57:01.545744] 225
[2025-04-13 13:57:01.552711] 225
[2025-04-13 13:57:01.552711] 144
[2025-04-13 13:57:01.553711] 100
[2025-04-13 13:57:01.553711] 36
[2025-04-13 13:57:01.553711] 0
[2025-04-13 13:57:01.553711] 25
[2025-04-13 13:57:01.553711] 100
[2025-04-13 13:57:01.562029] 225
[2025-04-13 13:57:01.562029] 256
[2025-04-13 13:57:01.562029] 196
[2025-04-13 13:57:01.562029] 64
[2025-04-13 13:57:01.562029] 1
[2025-04-13 13:57:01.562029] 25
[2025-04-13 13:57:01.562029] 100
[2025-04-13 13:57:01.562029] 196
[2025-04-13 13:57:01.571013] 225
[2025-04-13 13:57:01.571013] 225
[2025-04-13 13:57:01.571013] 196
[2025-04-13 13:57:01.571013] 144
[2025-04-13 13:57:01.571013] 81
[2025-04-13 13:57:01.571013] 16
[2025-04-13 13:57:01.571013] 0
[2025-04-13 13:57:01.579000] 36
[2025-04-13 13:57:01.579000] 144
[2025-04-13 13:57:01.579000] 225
[2025-04-13 13:57:01.579000] 256
[2025-04-13 13:57:01.579000] 169
[2025-04-13 13:57:01.580000] 49
[2025-04-13 13:57:01.580000] 0
[2025-04-13 13:57:01.587169] 36
[2025-04-13 13:57:01.587169] 121
[2025-04-13 13:57:01.587169] 196
[2025-04-13 13:57:01.587169] 256
[2025-04-13 13:57:01.587169] 256
[2025-04-13 13:57:01.587169] 225
[2025-04-13 13:57:01.587169] 144
[2025-04-13 13:57:01.596320] 81
[2025-04-13 13:57:01.596320] 9
[2025-04-13 13:57:01.596320] 9
[2025-04-13 13:57:01.596320] 64
[2025-04-13 13:57:01.596320] 169
[2025-04-13 13:57:01.596320] 225
[2025-04-13 13:57:01.596320] 225
[2025-04-13 13:57:01.604901] 100
[2025-04-13 13:57:01.604901] 25
[2025-04-13 13:57:01.605216] 0
[2025-04-13 13:57:01.605216] 49
[2025-04-13 13:57:01.605216] 144
[2025-04-13 13:57:01.605216] 225
[2025-04-13 13:57:01.605216] 289
[2025-04-13 13:57:01.612514] 256
[2025-04-13 13:57:01.613548] 196
[2025-04-13 13:57:01.613548] 121
[2025-04-13 13:57:01.613548] 49
[2025-04-13 13:57:01.613548] 4
[2025-04-13 13:57:01.613548] 16
[2025-04-13 13:57:01.613548] 100
[2025-04-13 13:57:01.613548] 196
[2025-04-13 13:57:01.622610] 256
[2025-04-13 13:57:01.622610] 196
[2025-04-13 13:57:01.622610] 81
[2025-04-13 13:57:01.622610] 9
[2025-04-13 13:57:01.622610] 4
[2025-04-13 13:57:01.622610] 49
[2025-04-13 13:57:01.623598] 121
[2025-04-13 13:57:01.630589] 225
[2025-04-13 13:57:01.630589] 289
[2025-04-13 13:57:01.630589] 256
[2025-04-13 13:57:01.630589] 169
[2025-04-13 13:57:01.630589] 100
[2025-04-13 13:57:01.630589] 36
[2025-04-13 13:57:01.630589] 0
[2025-04-13 13:57:01.639396] 36
[2025-04-13 13:57:01.639396] 100
[2025-04-13 13:57:01.639396] 225
[2025-04-13 13:57:01.639396] 256
[2025-04-13 13:57:01.639396] 196
[2025-04-13 13:57:01.639396] 81
[2025-04-13 13:57:01.639396] 4
[2025-04-13 13:57:01.639396] 16
[2025-04-13 13:57:01.647849] 100
[2025-04-13 13:57:01.647849] 169
[2025-04-13 13:57:01.647849] 225
[2025-04-13 13:57:01.647849] 256
[2025-04-13 13:57:01.647849] 225
[2025-04-13 13:57:01.647849] 144
[2025-04-13 13:57:01.655857] 81
[2025-04-13 13:57:01.655857] 36
[2025-04-13 13:57:01.655857] 0
[2025-04-13 13:57:01.655857] 36
[2025-04-13 13:57:01.655857] 144
[2025-04-13 13:57:01.655857] 256
[2025-04-13 13:57:01.656888] 256
[2025-04-13 13:57:01.664858] 169
[2025-04-13 13:57:01.664858] 36
[2025-04-13 13:57:01.664858] 0
[2025-04-13 13:57:01.664858] 49
[2025-04-13 13:57:01.664858] 169
[2025-04-13 13:57:01.664858] 225
[2025-04-13 13:57:01.664858] 256
[2025-04-13 13:57:01.664858] 256
[2025-04-13 13:57:01.673290] 196
[2025-04-13 13:57:01.674232] 121
[2025-04-13 13:57:01.674232] 64
[2025-04-13 13:57:01.674232] 4
[2025-04-13 13:57:01.674232] 4
[2025-04-13 13:57:01.674232] 49
[2025-04-13 13:57:01.674232] 169
[2025-04-13 13:57:01.682359] 256
[2025-04-13 13:57:01.682359] 256
[2025-04-13 13:57:01.682359] 144
[2025-04-13 13:57:01.682359] 36
[2025-04-13 13:57:01.682359] 4
[2025-04-13 13:57:01.682359] 64
[2025-04-13 13:57:01.682359] 169
[2025-04-13 13:57:01.690511] 225
[2025-04-13 13:57:01.690511] 256
[2025-04-13 13:57:01.690511] 256
[2025-04-13 13:57:01.690511] 169
[2025-04-13 13:57:01.690511] 121
[2025-04-13 13:57:01.690511] 64
[2025-04-13 13:57:01.690511] 4
[2025-04-13 13:57:01.690511] 25
[2025-04-13 13:57:01.699702] 100
[2025-04-13 13:57:01.699702] 256
[2025-04-13 13:57:01.699702] 324
[2025-04-13 13:57:01.699702] 225
[2025-04-13 13:57:01.699702] 81
[2025-04-13 13:57:01.699702] 9
[2025-04-13 13:57:01.699702] 9
[2025-04-13 13:57:01.707685] 81
[2025-04-13 13:57:01.707685] 169
[2025-04-13 13:57:01.708668] 225
[2025-04-13 13:57:01.708668] 289
[2025-04-13 13:57:01.708668] 225
[2025-04-13 13:57:01.708668] 169
[2025-04-13 13:57:01.709646] 100
[2025-04-13 13:57:01.716720] 49
[2025-04-13 13:57:01.716720] 4
[2025-04-13 13:57:01.716720] 9
[2025-04-13 13:57:01.716720] 100
[2025-04-13 13:57:01.716720] 225
[2025-04-13 13:57:01.716720] 324
[2025-04-13 13:57:01.716720] 225
[2025-04-13 13:57:01.724751] 81
[2025-04-13 13:57:01.724751] 4
[2025-04-13 13:57:01.724751] 16
[2025-04-13 13:57:01.724751] 81
[2025-04-13 13:57:01.725777] 169
[2025-04-13 13:57:01.725777] 225
[2025-04-13 13:57:01.725777] 256
[2025-04-13 13:57:01.733934] 196
[2025-04-13 13:57:01.733934] 144
[2025-04-13 13:57:01.733934] 100
[2025-04-13 13:57:01.733934] 36
[2025-04-13 13:57:01.733934] 0
[2025-04-13 13:57:01.733934] 36
[2025-04-13 13:57:01.733934] 121
[2025-04-13 13:57:01.733934] 225
[2025-04-13 13:57:01.742839] 256
[2025-04-13 13:57:01.742839] 169
[2025-04-13 13:57:01.742839] 49
[2025-04-13 13:57:01.742839] 0
[2025-04-13 13:57:01.742839] 16
[2025-04-13 13:57:01.742839] 100
[2025-04-13 13:57:01.742839] 196
[2025-04-13 13:57:01.750840] 225
[2025-04-13 13:57:01.750840] 256
[2025-04-13 13:57:01.751728] 196
[2025-04-13 13:57:01.751728] 144
[2025-04-13 13:57:01.751728] 81
[2025-04-13 13:57:01.751728] 25
[2025-04-13 13:57:01.751728] 1
[2025-04-13 13:57:01.759713] 49
[2025-04-13 13:57:01.759713] 144
[2025-04-13 13:57:01.759713] 289
[2025-04-13 13:57:01.759713] 256
[2025-04-13 13:57:01.759713] 144
[2025-04-13 13:57:01.759713] 36
[2025-04-13 13:57:01.759713] 0
[2025-04-13 13:57:01.768046] 36
[2025-04-13 13:57:01.768046] 121
[2025-04-13 13:57:01.768046] 196
[2025-04-13 13:57:01.768046] 225
[2025-04-13 13:57:01.768046] 256
[2025-04-13 13:57:01.768046] 196
[2025-04-13 13:57:01.768046] 144
[2025-04-13 13:57:01.776046] 81
[2025-04-13 13:57:01.776046] 9
[2025-04-13 13:57:01.776905] 4
[2025-04-13 13:57:01.776905] 64
[2025-04-13 13:57:01.776905] 169
[2025-04-13 13:57:01.776905] 289
[2025-04-13 13:57:01.776905] 256
[2025-04-13 13:57:01.785030] 121
[2025-04-13 13:57:01.785030] 25
[2025-04-13 13:57:01.785030] 4
[2025-04-13 13:57:01.785030] 64
[2025-04-13 13:57:01.785030] 144
[2025-04-13 13:57:01.785030] 196
[2025-04-13 13:57:01.785030] 256
[2025-04-13 13:57:01.785030] 225
[2025-04-13 13:57:01.794140] 196
[2025-04-13 13:57:01.794140] 121
[2025-04-13 13:57:01.794140] 49
[2025-04-13 13:57:01.794140] 1
[2025-04-13 13:57:01.794140] 16
[2025-04-13 13:57:01.794140] 100
[2025-04-13 13:57:01.795148] 196
[2025-04-13 13:57:01.802252] 256
[2025-04-13 13:57:01.802252] 196
[2025-04-13 13:57:01.803252] 81
[2025-04-13 13:57:01.803252] 4
[2025-04-13 13:57:01.803252] 16
[2025-04-13 13:57:01.803252] 81
[2025-04-13 13:57:01.803252] 169
[2025-04-13 13:57:01.810407] 225
[2025-04-13 13:57:01.811409] 256
[2025-04-13 13:57:01.811409] 289
[2025-04-13 13:57:01.811409] 196
[2025-04-13 13:57:01.811409] 100
[2025-04-13 13:57:01.811409] 36
[2025-04-13 13:57:01.811409] 0
[2025-04-13 13:57:01.819253] 36
[2025-04-13 13:57:01.819253] 144
[2025-04-13 13:57:01.819253] 256
[2025-04-13 13:57:01.819253] 289
[2025-04-13 13:57:01.819253] 196
[2025-04-13 13:57:01.819253] 64
[2025-04-13 13:57:01.819253] 1
[2025-04-13 13:57:01.820287] 25
[2025-04-13 13:57:01.827262] 121
[2025-04-13 13:57:01.827262] 196
[2025-04-13 13:57:01.827262] 256
[2025-04-13 13:57:01.827262] 256
[2025-04-13 13:57:01.828255] 196
[2025-04-13 13:57:01.828255] 144
[2025-04-13 13:57:01.835498] 81
[2025-04-13 13:57:01.836555] 25
[2025-04-13 13:57:01.836555] 0
[2025-04-13 13:57:01.836555] 36
[2025-04-13 13:57:01.836555] 144
[2025-04-13 13:57:01.836555] 225
[2025-04-13 13:57:01.836555] 225
[2025-04-13 13:57:01.844901] 144
[2025-04-13 13:57:01.845123] 36
[2025-04-13 13:57:01.845123] 0
[2025-04-13 13:57:01.845123] 36
[2025-04-13 13:57:01.845123] 121
[2025-04-13 13:57:01.845123] 196
[2025-04-13 13:57:01.845123] 256
[2025-04-13 13:57:01.845123] 256
[2025-04-13 13:57:01.854266] 196
[2025-04-13 13:57:01.854266] 100
[2025-04-13 13:57:01.854266] 49
[2025-04-13 13:57:01.854266] 4
[2025-04-13 13:57:01.854266] 9
[2025-04-13 13:57:01.854266] 81
[2025-04-13 13:57:01.854266] 196
[2025-04-13 13:57:01.862260] 256
[2025-04-13 13:57:01.862260] 225
[2025-04-13 13:57:01.862260] 121
[2025-04-13 13:57:01.862260] 9
[2025-04-13 13:57:01.862260] 9
[2025-04-13 13:57:01.862260] 81
[2025-04-13 13:57:01.862260] 144
[2025-04-13 13:57:01.862260] 225
[2025-04-13 13:57:01.871503] 256
[2025-04-13 13:57:01.871503] 225
[2025-04-13 13:57:01.871503] 144
[2025-04-13 13:57:01.871503] 100
[2025-04-13 13:57:01.871503] 49
[2025-04-13 13:57:01.871503] 4
[2025-04-13 13:57:01.872542] 16
[2025-04-13 13:57:01.879538] 100
[2025-04-13 13:57:01.879538] 225
[2025-04-13 13:57:01.880548] 289
[2025-04-13 13:57:01.880548] 169
[2025-04-13 13:57:01.880548] 81
[2025-04-13 13:57:01.880548] 9
[2025-04-13 13:57:01.880548] 9
[2025-04-13 13:57:01.888067] 64
[2025-04-13 13:57:01.888067] 169
[2025-04-13 13:57:01.888920] 225
[2025-04-13 13:57:01.888920] 256
[2025-04-13 13:57:01.888920] 196
[2025-04-13 13:57:01.888920] 169
[2025-04-13 13:57:01.888920] 100
[2025-04-13 13:57:01.896938] 36
[2025-04-13 13:57:01.896938] 0
[2025-04-13 13:57:01.896938] 25
[2025-04-13 13:57:01.896938] 121
[2025-04-13 13:57:01.896938] 225
[2025-04-13 13:57:01.897923] 256
[2025-04-13 13:57:01.897923] 196
[2025-04-13 13:57:01.905027] 81
[2025-04-13 13:57:01.905027] 4
[2025-04-13 13:57:01.905027] 16
[2025-04-13 13:57:01.906059] 81
[2025-04-13 13:57:01.906059] 169
[2025-04-13 13:57:01.906059] 256
[2025-04-13 13:57:01.906059] 289
[2025-04-13 13:57:01.913138] 256
[2025-04-13 13:57:01.914130] 196
[2025-04-13 13:57:01.914130] 100
[2025-04-13 13:57:01.914130] 25
[2025-04-13 13:57:01.914130] 1
[2025-04-13 13:57:01.914130] 64
[2025-04-13 13:57:01.914130] 169
[2025-04-13 13:57:01.914130] 256
[2025-04-13 13:57:01.923136] 256
[2025-04-13 13:57:01.923136] 169
[2025-04-13 13:57:01.923136] 36
[2025-04-13 13:57:01.923136] 0
[2025-04-13 13:57:01.923136] 36
[2025-04-13 13:57:01.923136] 121
[2025-04-13 13:57:01.923136] 225
[2025-04-13 13:57:01.931691] 256
[2025-04-13 13:57:01.931691] 256
[2025-04-13 13:57:01.931691] 196
[2025-04-13 13:57:01.931691] 144
[2025-04-13 13:57:01.931691] 81
[2025-04-13 13:57:01.931691] 16
[2025-04-13 13:57:01.931691] 4
[2025-04-13 13:57:01.939841] 81
[2025-04-13 13:57:01.939841] 196
[2025-04-13 13:57:01.939841] 289
[2025-04-13 13:57:01.939841] 225
[2025-04-13 13:57:01.939841] 121
[2025-04-13 13:57:01.939841] 25
[2025-04-13 13:57:01.939841] 1
[2025-04-13 13:57:01.948172] 64
[2025-04-13 13:57:01.948172] 144
[2025-04-13 13:57:01.948172] 225
[2025-04-13 13:57:01.948172] 256
[2025-04-13 13:57:01.948172] 256
[2025-04-13 13:57:01.948172] 169
[2025-04-13 13:57:01.948172] 121
[2025-04-13 13:57:01.956322] 49
[2025-04-13 13:57:01.956322] 4
[2025-04-13 13:57:01.956322] 16
[2025-04-13 13:57:01.958204] 100
[2025-04-13 13:57:01.958204] 225
[2025-04-13 13:57:01.959201] 289
[2025-04-13 13:57:01.959201] 225
[2025-04-13 13:57:01.965330] 100
[2025-04-13 13:57:01.965330] 9
[2025-04-13 13:57:01.965330] 9
[2025-04-13 13:57:01.965330] 81
[2025-04-13 13:57:01.965330] 169
[2025-04-13 13:57:01.965330] 256
[2025-04-13 13:57:01.965330] 289
[2025-04-13 13:57:01.973537] 289
[2025-04-13 13:57:01.973537] 196
[2025-04-13 13:57:01.973537] 100
[2025-04-13 13:57:01.973537] 36
[2025-04-13 13:57:01.973537] 0
[2025-04-13 13:57:01.973537] 36
[2025-04-13 13:57:01.973537] 144
[2025-04-13 13:57:01.973537] 289
[2025-04-13 13:57:01.982738] 324
[2025-04-13 13:57:01.982738] 196
[2025-04-13 13:57:01.982738] 49
[2025-04-13 13:57:01.983593] 1
[2025-04-13 13:57:01.983593] 25
[2025-04-13 13:57:01.983593] 100
[2025-04-13 13:57:01.983593] 169
[2025-04-13 13:57:01.991080] 225
[2025-04-13 13:57:01.991080] 289
[2025-04-13 13:57:01.991080] 225
[2025-04-13 13:57:01.991080] 169
[2025-04-13 13:57:01.992087] 100
[2025-04-13 13:57:01.992087] 36
[2025-04-13 13:57:01.992087] 0
[2025-04-13 13:57:01.999847] 49
[2025-04-13 13:57:01.999847] 144
[2025-04-13 13:57:01.999847] 256
[2025-04-13 13:57:01.999847] 225
[2025-04-13 13:57:01.999847] 144
[2025-04-13 13:57:01.999847] 49
[2025-04-13 13:57:01.999847] 0
[2025-04-13 13:57:02.006877] 25
[2025-04-13 13:57:02.006877] 121
[2025-04-13 13:57:02.006877] 169
[2025-04-13 13:57:02.006877] 225
[2025-04-13 13:57:02.007892] 256
[2025-04-13 13:57:02.007892] 196
[2025-04-13 13:57:02.007892] 121
[2025-04-13 13:57:02.016341] 64
[2025-04-13 13:57:02.016341] 16
[2025-04-13 13:57:02.016341] 4
[2025-04-13 13:57:02.016878] 64
[2025-04-13 13:57:02.016878] 169
[2025-04-13 13:57:02.016878] 256
[2025-04-13 13:57:02.016878] 256
[2025-04-13 13:57:02.024991] 144
[2025-04-13 13:57:02.024991] 16
[2025-04-13 13:57:02.024991] 4
[2025-04-13 13:57:02.024991] 64
[2025-04-13 13:57:02.024991] 169
[2025-04-13 13:57:02.024991] 225
[2025-04-13 13:57:02.024991] 289
[2025-04-13 13:57:02.033117] 289
[2025-04-13 13:57:02.033117] 196
[2025-04-13 13:57:02.033117] 121
[2025-04-13 13:57:02.033117] 49
[2025-04-13 13:57:02.033117] 1
[2025-04-13 13:57:02.033117] 25
[2025-04-13 13:57:02.034007] 121
[2025-04-13 13:57:02.041776] 256
[2025-04-13 13:57:02.041776] 289
[2025-04-13 13:57:02.041776] 225
[2025-04-13 13:57:02.041776] 100
[2025-04-13 13:57:02.041776] 4
[2025-04-13 13:57:02.041776] 25
[2025-04-13 13:57:02.041776] 100
[2025-04-13 13:57:02.050175] 144
[2025-04-13 13:57:02.050175] 225
[2025-04-13 13:57:02.050175] 225
[2025-04-13 13:57:02.050175] 225
[2025-04-13 13:57:02.050175] 169
[2025-04-13 13:57:02.050175] 121
[2025-04-13 13:57:02.050175] 36
[2025-04-13 13:57:02.058526] 0
[2025-04-13 13:57:02.058526] 36
[2025-04-13 13:57:02.058526] 121
[2025-04-13 13:57:02.058526] 256
[2025-04-13 13:57:02.058526] 289
[2025-04-13 13:57:02.058526] 196
[2025-04-13 13:57:02.058526] 49
[2025-04-13 13:57:02.058526] 1
[2025-04-13 13:57:02.066944] 36
[2025-04-13 13:57:02.066944] 121
[2025-04-13 13:57:02.066944] 196
[2025-04-13 13:57:02.066944] 289
[2025-04-13 13:57:02.066944] 256
[2025-04-13 13:57:02.067803] 196
[2025-04-13 13:57:02.074943] 121
[2025-04-13 13:57:02.074943] 64
[2025-04-13 13:57:02.074943] 16
[2025-04-13 13:57:02.075841] 4
[2025-04-13 13:57:02.075841] 49
[2025-04-13 13:57:02.075841] 169
[2025-04-13 13:57:02.075841] 256
[2025-04-13 13:57:02.075841] 256
[2025-04-13 13:57:02.083981] 100
[2025-04-13 13:57:02.085007] 16
[2025-04-13 13:57:02.085007] 1
[2025-04-13 13:57:02.085007] 36
[2025-04-13 13:57:02.085007] 100
[2025-04-13 13:57:02.085999] 144
[2025-04-13 13:57:02.085999] 196
[2025-04-13 13:57:02.093282] 225
[2025-04-13 13:57:02.093282] 196
[2025-04-13 13:57:02.093282] 144
[2025-04-13 13:57:02.093282] 81
[2025-04-13 13:57:02.093282] 16
[2025-04-13 13:57:02.093282] 4
[2025-04-13 13:57:02.094283] 81
[2025-04-13 13:57:02.102283] 225
[2025-04-13 13:57:02.102283] 289
[2025-04-13 13:57:02.102283] 256
[2025-04-13 13:57:02.102283] 81
[2025-04-13 13:57:02.102283] 9
[2025-04-13 13:57:02.103283] 9
[2025-04-13 13:57:02.103283] 81
[2025-04-13 13:57:02.103283] 144
[2025-04-13 13:57:02.110778] 196
[2025-04-13 13:57:02.110778] 256
[2025-04-13 13:57:02.110778] 225
[2025-04-13 13:57:02.110778] 196
[2025-04-13 13:57:02.111321] 100
[2025-04-13 13:57:02.111321] 49
[2025-04-13 13:57:02.111321] 1
[2025-04-13 13:57:02.118862] 16
[2025-04-13 13:57:02.118862] 100
[2025-04-13 13:57:02.118862] 225
[2025-04-13 13:57:02.118862] 256
[2025-04-13 13:57:02.118862] 225
[2025-04-13 13:57:02.118862] 81
[2025-04-13 13:57:02.118862] 4
[2025-04-13 13:57:02.126863] 16
[2025-04-13 13:57:02.126863] 81
[2025-04-13 13:57:02.127857] 169
[2025-04-13 13:57:02.127857] 225
[2025-04-13 13:57:02.127857] 289
[2025-04-13 13:57:02.127857] 225
[2025-04-13 13:57:02.127857] 169
[2025-04-13 13:57:02.136060] 81
[2025-04-13 13:57:02.136060] 36
[2025-04-13 13:57:02.136060] 0
[2025-04-13 13:57:02.136060] 36
[2025-04-13 13:57:02.136060] 144
[2025-04-13 13:57:02.136060] 256
[2025-04-13 13:57:02.136060] 289
[2025-04-13 13:57:02.144784] 169
[2025-04-13 13:57:02.145805] 64
[2025-04-13 13:57:02.145805] 0
[2025-04-13 13:57:02.146783] 25
[2025-04-13 13:57:02.146783] 81
[2025-04-13 13:57:02.146783] 144
[2025-04-13 13:57:02.146783] 196
[2025-04-13 13:57:02.146783] 256
[2025-04-13 13:57:02.153884] 225
[2025-04-13 13:57:02.153884] 169
[2025-04-13 13:57:02.153884] 100
[2025-04-13 13:57:02.153884] 25
[2025-04-13 13:57:02.153884] 0
[2025-04-13 13:57:02.153884] 36
[2025-04-13 13:57:02.153884] 169
[2025-04-13 13:57:02.162172] 256
[2025-04-13 13:57:02.162172] 256
[2025-04-13 13:57:02.162172] 144
[2025-04-13 13:57:02.162172] 25
[2025-04-13 13:57:02.162172] 0
[2025-04-13 13:57:02.162172] 36
[2025-04-13 13:57:02.162172] 144
[2025-04-13 13:57:02.170134] 196
[2025-04-13 13:57:02.170134] 256
[2025-04-13 13:57:02.170992] 225
[2025-04-13 13:57:02.170992] 169
[2025-04-13 13:57:02.170992] 121
[2025-04-13 13:57:02.170992] 81
[2025-04-13 13:57:02.170992] 9
[2025-04-13 13:57:02.179993] 9
[2025-04-13 13:57:02.179993] 100
[2025-04-13 13:57:02.179993] 225
[2025-04-13 13:57:02.179993] 256
[2025-04-13 13:57:02.179993] 225
[2025-04-13 13:57:02.179993] 81
[2025-04-13 13:57:02.179993] 9
[2025-04-13 13:57:02.179993] 4
[2025-04-13 13:57:02.187230] 64
[2025-04-13 13:57:02.187230] 121
[2025-04-13 13:57:02.187230] 196
[2025-04-13 13:57:02.187230] 225
[2025-04-13 13:57:02.187230] 196
[2025-04-13 13:57:02.187230] 144
[2025-04-13 13:57:02.196263] 100
[2025-04-13 13:57:02.197250] 49
[2025-04-13 13:57:02.197250] 9
[2025-04-13 13:57:02.197250] 4
[2025-04-13 13:57:02.197250] 81
[2025-04-13 13:57:02.197250] 196
[2025-04-13 13:57:02.197250] 256
[2025-04-13 13:57:02.197250] 196
[2025-04-13 13:57:02.205407] 100
[2025-04-13 13:57:02.205407] 16
[2025-04-13 13:57:02.205407] 4
[2025-04-13 13:57:02.205407] 64
[2025-04-13 13:57:02.205407] 144
[2025-04-13 13:57:02.205407] 225
[2025-04-13 13:57:02.205407] 289
[2025-04-13 13:57:02.213262] 256
[2025-04-13 13:57:02.213262] 196
[2025-04-13 13:57:02.213262] 100
[2025-04-13 13:57:02.213262] 36
[2025-04-13 13:57:02.213262] 1
[2025-04-13 13:57:02.213262] 25
[2025-04-13 13:57:02.214268] 100
[2025-04-13 13:57:02.222270] 196
[2025-04-13 13:57:02.222270] 256
[2025-04-13 13:57:02.222270] 196
[2025-04-13 13:57:02.222270] 64
[2025-04-13 13:57:02.222270] 1
[2025-04-13 13:57:02.222270] 25
[2025-04-13 13:57:02.222270] 121
[2025-04-13 13:57:02.223288] 169
[2025-04-13 13:57:02.231401] 225
[2025-04-13 13:57:02.231401] 256
[2025-04-13 13:57:02.231401] 169
[2025-04-13 13:57:02.231401] 121
[2025-04-13 13:57:02.231401] 64
[2025-04-13 13:57:02.231401] 16
[2025-04-13 13:57:02.231401] 1
[2025-04-13 13:57:02.239044] 36
[2025-04-13 13:57:02.240011] 144
[2025-04-13 13:57:02.240011] 225
[2025-04-13 13:57:02.240011] 256
[2025-04-13 13:57:02.240011] 169
[2025-04-13 13:57:02.240011] 36
[2025-04-13 13:57:02.240011] 0
[2025-04-13 13:57:02.247341] 36
[2025-04-13 13:57:02.247341] 100
[2025-04-13 13:57:02.247341] 196
[2025-04-13 13:57:02.247341] 256
[2025-04-13 13:57:02.247341] 256
[2025-04-13 13:57:02.247341] 225
[2025-04-13 13:57:02.248376] 121
[2025-04-13 13:57:02.256376] 64
[2025-04-13 13:57:02.256376] 16
[2025-04-13 13:57:02.256376] 4
[2025-04-13 13:57:02.256376] 64
[2025-04-13 13:57:02.256376] 144
[2025-04-13 13:57:02.256376] 256
[2025-04-13 13:57:02.256376] 225
[2025-04-13 13:57:02.264556] 121
[2025-04-13 13:57:02.264556] 25
[2025-04-13 13:57:02.264556] 1
[2025-04-13 13:57:02.264556] 49
[2025-04-13 13:57:02.264556] 144
[2025-04-13 13:57:02.264556] 225
[2025-04-13 13:57:02.265618] 289
[2025-04-13 13:57:02.273684] 256
[2025-04-13 13:57:02.273684] 169
[2025-04-13 13:57:02.273684] 100
[2025-04-13 13:57:02.273684] 49
[2025-04-13 13:57:02.273684] 1
[2025-04-13 13:57:02.273684] 16
[2025-04-13 13:57:02.274689] 121
[2025-04-13 13:57:02.282667] 225
[2025-04-13 13:57:02.282667] 256
[2025-04-13 13:57:02.282667] 225
[2025-04-13 13:57:02.282667] 100
[2025-04-13 13:57:02.282667] 9
[2025-04-13 13:57:02.282667] 9
[2025-04-13 13:57:02.282667] 81
[2025-04-13 13:57:02.283661] 169
[2025-04-13 13:57:02.290522] 256
[2025-04-13 13:57:02.290522] 289
[2025-04-13 13:57:02.291502] 256
[2025-04-13 13:57:02.291502] 169
[2025-04-13 13:57:02.291502] 100
[2025-04-13 13:57:02.291502] 36
[2025-04-13 13:57:02.291502] 1
[2025-04-13 13:57:02.299583] 25
[2025-04-13 13:57:02.299583] 144
[2025-04-13 13:57:02.299583] 256
[2025-04-13 13:57:02.299583] 324
[2025-04-13 13:57:02.299583] 196
[2025-04-13 13:57:02.299583] 64
[2025-04-13 13:57:02.299583] 1
[2025-04-13 13:57:02.307276] 16
[2025-04-13 13:57:02.307276] 100
[2025-04-13 13:57:02.307276] 196
[2025-04-13 13:57:02.307276] 256
[2025-04-13 13:57:02.307276] 289
[2025-04-13 13:57:02.307276] 256
[2025-04-13 13:57:02.307276] 196
[2025-04-13 13:57:02.315761] 100
[2025-04-13 13:57:02.315761] 25
[2025-04-13 13:57:02.316623] 0
[2025-04-13 13:57:02.316623] 49
[2025-04-13 13:57:02.316623] 169
[2025-04-13 13:57:02.316623] 289
[2025-04-13 13:57:02.316623] 256
[2025-04-13 13:57:02.324656] 169
[2025-04-13 13:57:02.324656] 36
[2025-04-13 13:57:02.324656] 0
[2025-04-13 13:57:02.324656] 49
[2025-04-13 13:57:02.324656] 144
[2025-04-13 13:57:02.324656] 196
[2025-04-13 13:57:02.324656] 256
[2025-04-13 13:57:02.333435] 225
[2025-04-13 13:57:02.333435] 196
[2025-04-13 13:57:02.333435] 121
[2025-04-13 13:57:02.333435] 49
[2025-04-13 13:57:02.333435] 4
[2025-04-13 13:57:02.333435] 9
[2025-04-13 13:57:02.333435] 100
[2025-04-13 13:57:02.342584] 225
[2025-04-13 13:57:02.342584] 289
[2025-04-13 13:57:02.342584] 225
[2025-04-13 13:57:02.342584] 100
[2025-04-13 13:57:02.342584] 9
[2025-04-13 13:57:02.342584] 9
[2025-04-13 13:57:02.343473] 81
[2025-04-13 13:57:02.343473] 169
[2025-04-13 13:57:02.350827] 225
[2025-04-13 13:57:02.350827] 256
[2025-04-13 13:57:02.350827] 225
[2025-04-13 13:57:02.350827] 196
[2025-04-13 13:57:02.350827] 121
[2025-04-13 13:57:02.350827] 64
[2025-04-13 13:57:02.350827] 9
[2025-04-13 13:57:02.359227] 16
[2025-04-13 13:57:02.359227] 121
[2025-04-13 13:57:02.359227] 225
[2025-04-13 13:57:02.359227] 289
[2025-04-13 13:57:02.359227] 225
[2025-04-13 13:57:02.359227] 100
[2025-04-13 13:57:02.359227] 9
[2025-04-13 13:57:02.367233] 9
[2025-04-13 13:57:02.367233] 64
[2025-04-13 13:57:02.367233] 144
[2025-04-13 13:57:02.368233] 196
[2025-04-13 13:57:02.368233] 256
[2025-04-13 13:57:02.368233] 225
[2025-04-13 13:57:02.368233] 169
[2025-04-13 13:57:02.376172] 100
[2025-04-13 13:57:02.376172] 49
[2025-04-13 13:57:02.376172] 1
[2025-04-13 13:57:02.376172] 25
[2025-04-13 13:57:02.376172] 144
[2025-04-13 13:57:02.376172] 256
[2025-04-13 13:57:02.376172] 289
[2025-04-13 13:57:02.384277] 196
[2025-04-13 13:57:02.384277] 64
[2025-04-13 13:57:02.384277] 1
[2025-04-13 13:57:02.384277] 36
[2025-04-13 13:57:02.384277] 121
[2025-04-13 13:57:02.384277] 225
[2025-04-13 13:57:02.385329] 256
[2025-04-13 13:57:02.393632] 289
[2025-04-13 13:57:02.393632] 196
[2025-04-13 13:57:02.394492] 121
[2025-04-13 13:57:02.394492] 64
[2025-04-13 13:57:02.394492] 9
[2025-04-13 13:57:02.394492] 4
[2025-04-13 13:57:02.394492] 49
[2025-04-13 13:57:02.394492] 169
[2025-04-13 13:57:02.402492] 289
[2025-04-13 13:57:02.402492] 256
[2025-04-13 13:57:02.402492] 144
[2025-04-13 13:57:02.402492] 36
[2025-04-13 13:57:02.402492] 0
[2025-04-13 13:57:02.402492] 49
[2025-04-13 13:57:02.402492] 144
[2025-04-13 13:57:02.410792] 256
[2025-04-13 13:57:02.410792] 361
[2025-04-13 13:57:02.410792] 361
[2025-04-13 13:57:02.410792] 256
[2025-04-13 13:57:02.410792] 144
[2025-04-13 13:57:02.410792] 49
[2025-04-13 13:57:02.410792] 4
[2025-04-13 13:57:02.418804] 25
[2025-04-13 13:57:02.418804] 100
[2025-04-13 13:57:02.418804] 196
[2025-04-13 13:57:02.418804] 256
[2025-04-13 13:57:02.418804] 225
[2025-04-13 13:57:02.418804] 100
[2025-04-13 13:57:02.419776] 16
[2025-04-13 13:57:02.426792] 4
[2025-04-13 13:57:02.426792] 64
[2025-04-13 13:57:02.427777] 144
[2025-04-13 13:57:02.427777] 225
[2025-04-13 13:57:02.427777] 225
[2025-04-13 13:57:02.427777] 225
[2025-04-13 13:57:02.427777] 169
[2025-04-13 13:57:02.435934] 100
[2025-04-13 13:57:02.435934] 36
[2025-04-13 13:57:02.435934] 1
[2025-04-13 13:57:02.435934] 25
[2025-04-13 13:57:02.435934] 121
[2025-04-13 13:57:02.435934] 225
[2025-04-13 13:57:02.435934] 289
[2025-04-13 13:57:02.444087] 196
[2025-04-13 13:57:02.444087] 81
[2025-04-13 13:57:02.444087] 4
[2025-04-13 13:57:02.444087] 16
[2025-04-13 13:57:02.444087] 121
[2025-04-13 13:57:02.444087] 196
[2025-04-13 13:57:02.444087] 256
[2025-04-13 13:57:02.452945] 289
[2025-04-13 13:57:02.452945] 225
[2025-04-13 13:57:02.452945] 144
[2025-04-13 13:57:02.452945] 81
[2025-04-13 13:57:02.452945] 36
[2025-04-13 13:57:02.452945] 0
[2025-04-13 13:57:02.452945] 36
[2025-04-13 13:57:02.452945] 169
[2025-04-13 13:57:02.461950] 256
[2025-04-13 13:57:02.461950] 289
[2025-04-13 13:57:02.461950] 169
[2025-04-13 13:57:02.462946] 64
[2025-04-13 13:57:02.462946] 0
[2025-04-13 13:57:02.462946] 36
[2025-04-13 13:57:02.462946] 100
[2025-04-13 13:57:02.468949] 196
[2025-04-13 13:57:02.468949] 256
[2025-04-13 13:57:02.468949] 256
[2025-04-13 13:57:02.469988] 225
[2025-04-13 13:57:02.469988] 121
[2025-04-13 13:57:02.469988] 81
[2025-04-13 13:57:02.469988] 16
[2025-04-13 13:57:02.478155] 1
[2025-04-13 13:57:02.478155] 64
[2025-04-13 13:57:02.478155] 196
[2025-04-13 13:57:02.478155] 289
[2025-04-13 13:57:02.479211] 256
[2025-04-13 13:57:02.479211] 144
[2025-04-13 13:57:02.479211] 25
[2025-04-13 13:57:02.487308] 1
[2025-04-13 13:57:02.487308] 64
[2025-04-13 13:57:02.487308] 196
[2025-04-13 13:57:02.487308] 289
[2025-04-13 13:57:02.487308] 289
[2025-04-13 13:57:02.487308] 256
[2025-04-13 13:57:02.487308] 144
[2025-04-13 13:57:02.495672] 100
[2025-04-13 13:57:02.495672] 49
[2025-04-13 13:57:02.495672] 4
[2025-04-13 13:57:02.495672] 9
[2025-04-13 13:57:02.495672] 81
[2025-04-13 13:57:02.495672] 196
[2025-04-13 13:57:02.495672] 256
[2025-04-13 13:57:02.504026] 225
[2025-04-13 13:57:02.504026] 100
[2025-04-13 13:57:02.504026] 16
[2025-04-13 13:57:02.504026] 4
[2025-04-13 13:57:02.504026] 64
[2025-04-13 13:57:02.504026] 121
[2025-04-13 13:57:02.504026] 196
[2025-04-13 13:57:02.504026] 256
[2025-04-13 13:57:02.512902] 225
[2025-04-13 13:57:02.512902] 196
[2025-04-13 13:57:02.512902] 100
[2025-04-13 13:57:02.512902] 49
[2025-04-13 13:57:02.512902] 1
[2025-04-13 13:57:02.513894] 16
[2025-04-13 13:57:02.513894] 100
[2025-04-13 13:57:02.521566] 196
[2025-04-13 13:57:02.521566] 256
[2025-04-13 13:57:02.521566] 196
[2025-04-13 13:57:02.521566] 81
[2025-04-13 13:57:02.521566] 4
[2025-04-13 13:57:02.521566] 16
[2025-04-13 13:57:02.521566] 81
[2025-04-13 13:57:02.529929] 144
[2025-04-13 13:57:02.529929] 196
[2025-04-13 13:57:02.529929] 256
[2025-04-13 13:57:02.529929] 225
[2025-04-13 13:57:02.529929] 144
[2025-04-13 13:57:02.529929] 100
[2025-04-13 13:57:02.529929] 36
[2025-04-13 13:57:02.538015] 0
[2025-04-13 13:57:02.538875] 36
[2025-04-13 13:57:02.538875] 144
[2025-04-13 13:57:02.538875] 225
[2025-04-13 13:57:02.538875] 256
[2025-04-13 13:57:02.538875] 169
[2025-04-13 13:57:02.538875] 36
[2025-04-13 13:57:02.547147] 0
[2025-04-13 13:57:02.547147] 36
[2025-04-13 13:57:02.547147] 121
[2025-04-13 13:57:02.547147] 196
[2025-04-13 13:57:02.547147] 225
[2025-04-13 13:57:02.547147] 256
[2025-04-13 13:57:02.547147] 169
[2025-04-13 13:57:02.554813] 121
[2025-04-13 13:57:02.555810] 64
[2025-04-13 13:57:02.555810] 25
[2025-04-13 13:57:02.555810] 1
[2025-04-13 13:57:02.555810] 49
[2025-04-13 13:57:02.555810] 196
[2025-04-13 13:57:02.555810] 289
[2025-04-13 13:57:02.563654] 256
[2025-04-13 13:57:02.563654] 169
[2025-04-13 13:57:02.563654] 36
[2025-04-13 13:57:02.564642] 0
[2025-04-13 13:57:02.564642] 64
[2025-04-13 13:57:02.564642] 169
[2025-04-13 13:57:02.564642] 256
[2025-04-13 13:57:02.564642] 289
[2025-04-13 13:57:02.572621] 289
[2025-04-13 13:57:02.572621] 196
[2025-04-13 13:57:02.573598] 121
[2025-04-13 13:57:02.573598] 49
[2025-04-13 13:57:02.573598] 4
[2025-04-13 13:57:02.573598] 9
[2025-04-13 13:57:02.573598] 100
[2025-04-13 13:57:02.581690] 225
[2025-04-13 13:57:02.581690] 289
[2025-04-13 13:57:02.581690] 225
[2025-04-13 13:57:02.581690] 100
[2025-04-13 13:57:02.581690] 9
[2025-04-13 13:57:02.581690] 16
[2025-04-13 13:57:02.581690] 100
[2025-04-13 13:57:02.588608] 169
[2025-04-13 13:57:02.589483] 196
[2025-04-13 13:57:02.589483] 256
[2025-04-13 13:57:02.589483] 225
[2025-04-13 13:57:02.589483] 169
[2025-04-13 13:57:02.589483] 100
[2025-04-13 13:57:02.589483] 36
[2025-04-13 13:57:02.597477] 1
[2025-04-13 13:57:02.598475] 25
[2025-04-13 13:57:02.598475] 121
[2025-04-13 13:57:02.598475] 225
[2025-04-13 13:57:02.598475] 256
[2025-04-13 13:57:02.598475] 196
[2025-04-13 13:57:02.598475] 81
[2025-04-13 13:57:02.606823] 4
[2025-04-13 13:57:02.606823] 16
[2025-04-13 13:57:02.606823] 81
[2025-04-13 13:57:02.606823] 169
[2025-04-13 13:57:02.606823] 225
[2025-04-13 13:57:02.606823] 256
[2025-04-13 13:57:02.606823] 256
[2025-04-13 13:57:02.614970] 169
[2025-04-13 13:57:02.614970] 121
[2025-04-13 13:57:02.614970] 36
[2025-04-13 13:57:02.614970] 0
[2025-04-13 13:57:02.614970] 36
[2025-04-13 13:57:02.614970] 121
[2025-04-13 13:57:02.614970] 256
[2025-04-13 13:57:02.623013] 289
[2025-04-13 13:57:02.623013] 169
[2025-04-13 13:57:02.624022] 64
[2025-04-13 13:57:02.624022] 1
[2025-04-13 13:57:02.624022] 25
[2025-04-13 13:57:02.624022] 100
[2025-04-13 13:57:02.624022] 196
[2025-04-13 13:57:02.633139] 256
[2025-04-13 13:57:02.633139] 256
[2025-04-13 13:57:02.633139] 196
[2025-04-13 13:57:02.633139] 121
[2025-04-13 13:57:02.633139] 64
[2025-04-13 13:57:02.633139] 25
[2025-04-13 13:57:02.633139] 1
[2025-04-13 13:57:02.633139] 49
[2025-04-13 13:57:02.641279] 169
[2025-04-13 13:57:02.641279] 256
[2025-04-13 13:57:02.641279] 256
[2025-04-13 13:57:02.641279] 121
[2025-04-13 13:57:02.641279] 25
[2025-04-13 13:57:02.641279] 0
[2025-04-13 13:57:02.641279] 49
[2025-04-13 13:57:02.648151] 121
[2025-04-13 13:57:02.649159] 196
[2025-04-13 13:57:02.649159] 256
[2025-04-13 13:57:02.649159] 256
[2025-04-13 13:57:02.649159] 169
[2025-04-13 13:57:02.649159] 121
[2025-04-13 13:57:02.649159] 64
[2025-04-13 13:57:02.658281] 9
[2025-04-13 13:57:02.658281] 9
[2025-04-13 13:57:02.658281] 81
[2025-04-13 13:57:02.658281] 196
[2025-04-13 13:57:02.658281] 256
[2025-04-13 13:57:02.658281] 225
[2025-04-13 13:57:02.658281] 100
[2025-04-13 13:57:02.666425] 16
[2025-04-13 13:57:02.666425] 9
[2025-04-13 13:57:02.666425] 64
[2025-04-13 13:57:02.666425] 144
[2025-04-13 13:57:02.666425] 256
[2025-04-13 13:57:02.667282] 289
[2025-04-13 13:57:02.667282] 225
[2025-04-13 13:57:02.674908] 169
[2025-04-13 13:57:02.674908] 100
[2025-04-13 13:57:02.674908] 49
[2025-04-13 13:57:02.674908] 1
[2025-04-13 13:57:02.674908] 25
[2025-04-13 13:57:02.674908] 144
[2025-04-13 13:57:02.674908] 256
[2025-04-13 13:57:02.682903] 289
[2025-04-13 13:57:02.682903] 196
[2025-04-13 13:57:02.682903] 64
[2025-04-13 13:57:02.682903] 1
[2025-04-13 13:57:02.682903] 36
[2025-04-13 13:57:02.682903] 100
[2025-04-13 13:57:02.683896] 144
[2025-04-13 13:57:02.683896] 225
[2025-04-13 13:57:02.692701] 289
[2025-04-13 13:57:02.692909] 225
[2025-04-13 13:57:02.692909] 144
[2025-04-13 13:57:02.692909] 81
[2025-04-13 13:57:02.692909] 36
[2025-04-13 13:57:02.692909] 0
[2025-04-13 13:57:02.692909] 36
[2025-04-13 13:57:02.701249] 121
[2025-04-13 13:57:02.701249] 225
[2025-04-13 13:57:02.701249] 256
[2025-04-13 13:57:02.701249] 169
[2025-04-13 13:57:02.701249] 64
[2025-04-13 13:57:02.701249] 1
[2025-04-13 13:57:02.701249] 25
[2025-04-13 13:57:02.709397] 81
[2025-04-13 13:57:02.709397] 196
[2025-04-13 13:57:02.709397] 256
[2025-04-13 13:57:02.709397] 289
[2025-04-13 13:57:02.709397] 225
[2025-04-13 13:57:02.709397] 144
[2025-04-13 13:57:02.709397] 81
[2025-04-13 13:57:02.717965] 9
[2025-04-13 13:57:02.717965] 1
[2025-04-13 13:57:02.717965] 64
[2025-04-13 13:57:02.717965] 169
[2025-04-13 13:57:02.717965] 256
[2025-04-13 13:57:02.717965] 256
[2025-04-13 13:57:02.717965] 144
[2025-04-13 13:57:02.717965] 25
[2025-04-13 13:57:02.726116] 0
[2025-04-13 13:57:02.726116] 49
[2025-04-13 13:57:02.726116] 144
[2025-04-13 13:57:02.726116] 196
[2025-04-13 13:57:02.726116] 256
[2025-04-13 13:57:02.727006] 256
[2025-04-13 13:57:02.727006] 196
[2025-04-13 13:57:02.735108] 100
[2025-04-13 13:57:02.735974] 64
[2025-04-13 13:57:02.735974] 4
[2025-04-13 13:57:02.735974] 9
[2025-04-13 13:57:02.735974] 81
[2025-04-13 13:57:02.735974] 196
[2025-04-13 13:57:02.735974] 256
[2025-04-13 13:57:02.744150] 225
[2025-04-13 13:57:02.744150] 121
[2025-04-13 13:57:02.744150] 9
[2025-04-13 13:57:02.744150] 9
[2025-04-13 13:57:02.744150] 81
[2025-04-13 13:57:02.744150] 144
[2025-04-13 13:57:02.744150] 196
[2025-04-13 13:57:02.745009] 289
[2025-04-13 13:57:02.753017] 256
[2025-04-13 13:57:02.753017] 169
[2025-04-13 13:57:02.753017] 100
[2025-04-13 13:57:02.753017] 36
[2025-04-13 13:57:02.753017] 1
[2025-04-13 13:57:02.753017] 16
[2025-04-13 13:57:02.754017] 100
[2025-04-13 13:57:02.761025] 225
[2025-04-13 13:57:02.762019] 256
[2025-04-13 13:57:02.762019] 225
[2025-04-13 13:57:02.762019] 100
[2025-04-13 13:57:02.762019] 9
[2025-04-13 13:57:02.762019] 9
[2025-04-13 13:57:02.762019] 100
[2025-04-13 13:57:02.769165] 196
[2025-04-13 13:57:02.769165] 256
[2025-04-13 13:57:02.769165] 289
[2025-04-13 13:57:02.769165] 225
[2025-04-13 13:57:02.769165] 144
[2025-04-13 13:57:02.769165] 100
[2025-04-13 13:57:02.769165] 25
[2025-04-13 13:57:02.778178] 0
[2025-04-13 13:57:02.778178] 36
[2025-04-13 13:57:02.778178] 144
[2025-04-13 13:57:02.778178] 225
[2025-04-13 13:57:02.778178] 256
[2025-04-13 13:57:02.778178] 196
[2025-04-13 13:57:02.778178] 49
[2025-04-13 13:57:02.787155] 0
[2025-04-13 13:57:02.787155] 36
[2025-04-13 13:57:02.787155] 100
[2025-04-13 13:57:02.787155] 169
[2025-04-13 13:57:02.787155] 225
[2025-04-13 13:57:02.787155] 256
[2025-04-13 13:57:02.787155] 225
[2025-04-13 13:57:02.795191] 169
[2025-04-13 13:57:02.795191] 81
[2025-04-13 13:57:02.795191] 36
[2025-04-13 13:57:02.795191] 0
[2025-04-13 13:57:02.795191] 36
[2025-04-13 13:57:02.795191] 169
[2025-04-13 13:57:02.796045] 256
[2025-04-13 13:57:02.804092] 289
[2025-04-13 13:57:02.804092] 169
[2025-04-13 13:57:02.804092] 49
[2025-04-13 13:57:02.804092] 0
[2025-04-13 13:57:02.804092] 36
[2025-04-13 13:57:02.804092] 121
[2025-04-13 13:57:02.804092] 169
[2025-04-13 13:57:02.812487] 256
[2025-04-13 13:57:02.812487] 256
[2025-04-13 13:57:02.812487] 225
[2025-04-13 13:57:02.813363] 144
[2025-04-13 13:57:02.813363] 64
[2025-04-13 13:57:02.813363] 9
[2025-04-13 13:57:02.813363] 16
[2025-04-13 13:57:02.813363] 121
[2025-04-13 13:57:02.821487] 196
[2025-04-13 13:57:02.821487] 256
[2025-04-13 13:57:02.821487] 256
[2025-04-13 13:57:02.821487] 121
[2025-04-13 13:57:02.821487] 16
[2025-04-13 13:57:02.821487] 4
[2025-04-13 13:57:02.821487] 81
[2025-04-13 13:57:02.828492] 196
[2025-04-13 13:57:02.829498] 289
[2025-04-13 13:57:02.829498] 289
[2025-04-13 13:57:02.829498] 256
[2025-04-13 13:57:02.829498] 169
[2025-04-13 13:57:02.830498] 81
[2025-04-13 13:57:02.830498] 25
[2025-04-13 13:57:02.837664] 0
[2025-04-13 13:57:02.838687] 25
[2025-04-13 13:57:02.838687] 100
[2025-04-13 13:57:02.838687] 225
[2025-04-13 13:57:02.838687] 289
[2025-04-13 13:57:02.838687] 196
[2025-04-13 13:57:02.838687] 64
[2025-04-13 13:57:02.846707] 4
[2025-04-13 13:57:02.846707] 16
[2025-04-13 13:57:02.846707] 100
[2025-04-13 13:57:02.846707] 169
[2025-04-13 13:57:02.846707] 256
[2025-04-13 13:57:02.846707] 256
[2025-04-13 13:57:02.846707] 256
[2025-04-13 13:57:02.854705] 144
[2025-04-13 13:57:02.854705] 81
[2025-04-13 13:57:02.854705] 25
[2025-04-13 13:57:02.854705] 0
[2025-04-13 13:57:02.854705] 49
[2025-04-13 13:57:02.854705] 144
[2025-04-13 13:57:02.855695] 256
[2025-04-13 13:57:02.863537] 225
[2025-04-13 13:57:02.863537] 121
[2025-04-13 13:57:02.863537] 25
[2025-04-13 13:57:02.863537] 0
[2025-04-13 13:57:02.863537] 25
[2025-04-13 13:57:02.863537] 100
[2025-04-13 13:57:02.863537] 169
[2025-04-13 13:57:02.872347] 256
[2025-04-13 13:57:02.873210] 289
[2025-04-13 13:57:02.873210] 225
[2025-04-13 13:57:02.873210] 144
[2025-04-13 13:57:02.873210] 81
[2025-04-13 13:57:02.873210] 16
[2025-04-13 13:57:02.873210] 4
[2025-04-13 13:57:02.873210] 64
[2025-04-13 13:57:02.881347] 169
[2025-04-13 13:57:02.881347] 289
[2025-04-13 13:57:02.881347] 256
[2025-04-13 13:57:02.881347] 144
[2025-04-13 13:57:02.881347] 16
[2025-04-13 13:57:02.881347] 4
[2025-04-13 13:57:02.881347] 64
[2025-04-13 13:57:02.888495] 144
[2025-04-13 13:57:02.888495] 225
[2025-04-13 13:57:02.888495] 289
[2025-04-13 13:57:02.888495] 289
[2025-04-13 13:57:02.888495] 196
[2025-04-13 13:57:02.891175] 121
[2025-04-13 13:57:02.891704] 49
[2025-04-13 13:57:02.897780] 4
[2025-04-13 13:57:02.897780] 25
[2025-04-13 13:57:02.897780] 81
[2025-04-13 13:57:02.898643] 196
[2025-04-13 13:57:02.898643] 256
[2025-04-13 13:57:02.898643] 225
[2025-04-13 13:57:02.898643] 100
[2025-04-13 13:57:02.906682] 16
[2025-04-13 13:57:02.906682] 4
[2025-04-13 13:57:02.906682] 64
[2025-04-13 13:57:02.906682] 144
[2025-04-13 13:57:02.906682] 196
[2025-04-13 13:57:02.906682] 225
[2025-04-13 13:57:02.906682] 225
[2025-04-13 13:57:02.915072] 144
[2025-04-13 13:57:02.915072] 100
[2025-04-13 13:57:02.915072] 49
[2025-04-13 13:57:02.915072] 4
[2025-04-13 13:57:02.915072] 16
[2025-04-13 13:57:02.915072] 121
[2025-04-13 13:57:02.915072] 225
[2025-04-13 13:57:02.923654] 256
[2025-04-13 13:57:02.923654] 196
[2025-04-13 13:57:02.923654] 64
[2025-04-13 13:57:02.923654] 1
[2025-04-13 13:57:02.923654] 16
[2025-04-13 13:57:02.923654] 81
[2025-04-13 13:57:02.923654] 144
[2025-04-13 13:57:02.924649] 196
[2025-04-13 13:57:02.932676] 256
[2025-04-13 13:57:02.932676] 225
[2025-04-13 13:57:02.932676] 196
[2025-04-13 13:57:02.932676] 100
[2025-04-13 13:57:02.932676] 36
[2025-04-13 13:57:02.932676] 0
[2025-04-13 13:57:02.933785] 49
[2025-04-13 13:57:02.940783] 144
[2025-04-13 13:57:02.940783] 256
[2025-04-13 13:57:02.940783] 225
[2025-04-13 13:57:02.940783] 144
[2025-04-13 13:57:02.940783] 49
[2025-04-13 13:57:02.940783] 0
[2025-04-13 13:57:02.940783] 25
[2025-04-13 13:57:02.948549] 100
[2025-04-13 13:57:02.948549] 196
[2025-04-13 13:57:02.948549] 256
[2025-04-13 13:57:02.948549] 256
[2025-04-13 13:57:02.948549] 196
[2025-04-13 13:57:02.948549] 144
[2025-04-13 13:57:02.948549] 81
[2025-04-13 13:57:02.958018] 16
[2025-04-13 13:57:02.958018] 1
[2025-04-13 13:57:02.958018] 81
[2025-04-13 13:57:02.958018] 196
[2025-04-13 13:57:02.958018] 289
[2025-04-13 13:57:02.958018] 225
[2025-04-13 13:57:02.958018] 121
[2025-04-13 13:57:02.965783] 25
[2025-04-13 13:57:02.965783] 1
[2025-04-13 13:57:02.965783] 49
[2025-04-13 13:57:02.965783] 144
[2025-04-13 13:57:02.966816] 196
[2025-04-13 13:57:02.966816] 256
[2025-04-13 13:57:02.966816] 256
[2025-04-13 13:57:02.974784] 196
[2025-04-13 13:57:02.974784] 144
[2025-04-13 13:57:02.974784] 64
[2025-04-13 13:57:02.974784] 4
[2025-04-13 13:57:02.974784] 16
[2025-04-13 13:57:02.974784] 100
[2025-04-13 13:57:02.974784] 225
[2025-04-13 13:57:02.983130] 289
[2025-04-13 13:57:02.983130] 225
[2025-04-13 13:57:02.983130] 100
[2025-04-13 13:57:02.983130] 9
[2025-04-13 13:57:02.983130] 9
[2025-04-13 13:57:02.983130] 81
[2025-04-13 13:57:02.984682] 169
[2025-04-13 13:57:02.984682] 225
[2025-04-13 13:57:02.991995] 289
[2025-04-13 13:57:02.991995] 256
[2025-04-13 13:57:02.991995] 169
[2025-04-13 13:57:02.992854] 121
[2025-04-13 13:57:02.992854] 49
[2025-04-13 13:57:02.992854] 1
[2025-04-13 13:57:02.992854] 25
[2025-04-13 13:57:03.000932] 121
[2025-04-13 13:57:03.000932] 225
[2025-04-13 13:57:03.000932] 256
[2025-04-13 13:57:03.000932] 169
[2025-04-13 13:57:03.000932] 100
[2025-04-13 13:57:03.000932] 4
[2025-04-13 13:57:03.000932] 9
[2025-04-13 13:57:03.008717] 64
[2025-04-13 13:57:03.008717] 144
[2025-04-13 13:57:03.009608] 225
[2025-04-13 13:57:03.009608] 289
[2025-04-13 13:57:03.009608] 256
[2025-04-13 13:57:03.009608] 169
[2025-04-13 13:57:03.009608] 81
[2025-04-13 13:57:03.017603] 25
[2025-04-13 13:57:03.017603] 0
[2025-04-13 13:57:03.017603] 49
[2025-04-13 13:57:03.017603] 144
[2025-04-13 13:57:03.017603] 225
[2025-04-13 13:57:03.018597] 256
[2025-04-13 13:57:03.018597] 169
[2025-04-13 13:57:03.025587] 49
[2025-04-13 13:57:03.026576] 0
[2025-04-13 13:57:03.026576] 25
[2025-04-13 13:57:03.026576] 121
[2025-04-13 13:57:03.026576] 196
[2025-04-13 13:57:03.026576] 256
[2025-04-13 13:57:03.027575] 256
[2025-04-13 13:57:03.034580] 225
[2025-04-13 13:57:03.034580] 144
[2025-04-13 13:57:03.034580] 81
[2025-04-13 13:57:03.034580] 25
[2025-04-13 13:57:03.034580] 0
[2025-04-13 13:57:03.035577] 49
[2025-04-13 13:57:03.035577] 169
[2025-04-13 13:57:03.035577] 289
[2025-04-13 13:57:03.043580] 289
[2025-04-13 13:57:03.043580] 169
[2025-04-13 13:57:03.043580] 49
[2025-04-13 13:57:03.044576] 0
[2025-04-13 13:57:03.044576] 36
[2025-04-13 13:57:03.044576] 144
[2025-04-13 13:57:03.044576] 225
[2025-04-13 13:57:03.051612] 289
[2025-04-13 13:57:03.052581] 289
[2025-04-13 13:57:03.052581] 196
[2025-04-13 13:57:03.052581] 121
[2025-04-13 13:57:03.052581] 64
[2025-04-13 13:57:03.052581] 9
[2025-04-13 13:57:03.052581] 4
[2025-04-13 13:57:03.060573] 64
[2025-04-13 13:57:03.060573] 169
[2025-04-13 13:57:03.060573] 256
[2025-04-13 13:57:03.060573] 225
[2025-04-13 13:57:03.061575] 121
[2025-04-13 13:57:03.061575] 25
[2025-04-13 13:57:03.061575] 4
[2025-04-13 13:57:03.061575] 64
[2025-04-13 13:57:03.068605] 144
[2025-04-13 13:57:03.068605] 196
[2025-04-13 13:57:03.068605] 225
[2025-04-13 13:57:03.068605] 256
[2025-04-13 13:57:03.068605] 169
[2025-04-13 13:57:03.069607] 121
[2025-04-13 13:57:03.077575] 49
[2025-04-13 13:57:03.077575] 4
[2025-04-13 13:57:03.077575] 16
[2025-04-13 13:57:03.077575] 121
[2025-04-13 13:57:03.077575] 256
[2025-04-13 13:57:03.077575] 289
[2025-04-13 13:57:03.077575] 225
[2025-04-13 13:57:03.085485] 100
[2025-04-13 13:57:03.085485] 9
[2025-04-13 13:57:03.085485] 16
[2025-04-13 13:57:03.085485] 100
[2025-04-13 13:57:03.085485] 225
[2025-04-13 13:57:03.085485] 256
[2025-04-13 13:57:03.085485] 289
[2025-04-13 13:57:03.094491] 256
[2025-04-13 13:57:03.094491] 144
[2025-04-13 13:57:03.094491] 100
[2025-04-13 13:57:03.094491] 25
[2025-04-13 13:57:03.094491] 0
[2025-04-13 13:57:03.095504] 49
[2025-04-13 13:57:03.095504] 144
[2025-04-13 13:57:03.102711] 289
[2025-04-13 13:57:03.102711] 256
[2025-04-13 13:57:03.102711] 169
[2025-04-13 13:57:03.102711] 49
[2025-04-13 13:57:03.102711] 0
[2025-04-13 13:57:03.102711] 49
[2025-04-13 13:57:03.102711] 121
[2025-04-13 13:57:03.102711] 225
[2025-04-13 13:57:03.111605] 256
[2025-04-13 13:57:03.111605] 256
[2025-04-13 13:57:03.112610] 169
[2025-04-13 13:57:03.112610] 100
[2025-04-13 13:57:03.112610] 64
[2025-04-13 13:57:03.112610] 16
[2025-04-13 13:57:03.112610] 4
[2025-04-13 13:57:03.120622] 49
[2025-04-13 13:57:03.120622] 144
[2025-04-13 13:57:03.120622] 225
[2025-04-13 13:57:03.120622] 256
[2025-04-13 13:57:03.121605] 121
[2025-04-13 13:57:03.121605] 36
[2025-04-13 13:57:03.121605] 1
[2025-04-13 13:57:03.127463] 49
[2025-04-13 13:57:03.127463] 121
[2025-04-13 13:57:03.127463] 196
[2025-04-13 13:57:03.127463] 225
[2025-04-13 13:57:03.128439] 225
[2025-04-13 13:57:03.128439] 196
[2025-04-13 13:57:03.128439] 121
[2025-04-13 13:57:03.136446] 64
[2025-04-13 13:57:03.136446] 9
[2025-04-13 13:57:03.137438] 9
[2025-04-13 13:57:03.137438] 81
[2025-04-13 13:57:03.137438] 196
[2025-04-13 13:57:03.137438] 225
[2025-04-13 13:57:03.137438] 196
[2025-04-13 13:57:03.146529] 81
[2025-04-13 13:57:03.146529] 9
[2025-04-13 13:57:03.146529] 9
[2025-04-13 13:57:03.146529] 64
[2025-04-13 13:57:03.146529] 144
[2025-04-13 13:57:03.146529] 196
[2025-04-13 13:57:03.146529] 256
[2025-04-13 13:57:03.146529] 225
[2025-04-13 13:57:03.155040] 196
[2025-04-13 13:57:03.155040] 100
[2025-04-13 13:57:03.155040] 49
[2025-04-13 13:57:03.155040] 4
[2025-04-13 13:57:03.155040] 16
[2025-04-13 13:57:03.155040] 100
[2025-04-13 13:57:03.155040] 225
[2025-04-13 13:57:03.163185] 289
[2025-04-13 13:57:03.163185] 225
[2025-04-13 13:57:03.163185] 100
[2025-04-13 13:57:03.163185] 9
[2025-04-13 13:57:03.163185] 16
[2025-04-13 13:57:03.163185] 100
[2025-04-13 13:57:03.163185] 196
[2025-04-13 13:57:03.171186] 289
[2025-04-13 13:57:03.172047] 324
[2025-04-13 13:57:03.172047] 256
[2025-04-13 13:57:03.172047] 169
[2025-04-13 13:57:03.172047] 64
[2025-04-13 13:57:03.172047] 16
[2025-04-13 13:57:03.172047] 4
[2025-04-13 13:57:03.180194] 81
[2025-04-13 13:57:03.180194] 169
[2025-04-13 13:57:03.180194] 256
[2025-04-13 13:57:03.180194] 256
[2025-04-13 13:57:03.180194] 169
[2025-04-13 13:57:03.180194] 36
[2025-04-13 13:57:03.180194] 0
[2025-04-13 13:57:03.180194] 36
[2025-04-13 13:57:03.188193] 100
[2025-04-13 13:57:03.188193] 196
[2025-04-13 13:57:03.189087] 289
[2025-04-13 13:57:03.189087] 289
[2025-04-13 13:57:03.189087] 225
[2025-04-13 13:57:03.189087] 144
[2025-04-13 13:57:03.196895] 81
[2025-04-13 13:57:03.196895] 9
[2025-04-13 13:57:03.196895] 1
[2025-04-13 13:57:03.196895] 64
[2025-04-13 13:57:03.196895] 196
[2025-04-13 13:57:03.196895] 289
[2025-04-13 13:57:03.196895] 256
[2025-04-13 13:57:03.196895] 144
[2025-04-13 13:57:03.205644] 36
[2025-04-13 13:57:03.205644] 1
[2025-04-13 13:57:03.206678] 49
[2025-04-13 13:57:03.206678] 121
[2025-04-13 13:57:03.206678] 196
[2025-04-13 13:57:03.206678] 256
[2025-04-13 13:57:03.206678] 256
[2025-04-13 13:57:03.214636] 225
[2025-04-13 13:57:03.214636] 144
[2025-04-13 13:57:03.214636] 81
[2025-04-13 13:57:03.214636] 9
[2025-04-13 13:57:03.214636] 4
[2025-04-13 13:57:03.214636] 64
[2025-04-13 13:57:03.214636] 169
[2025-04-13 13:57:03.223090] 256
[2025-04-13 13:57:03.223090] 256
[2025-04-13 13:57:03.223090] 144
[2025-04-13 13:57:03.223090] 25
[2025-04-13 13:57:03.223090] 4
[2025-04-13 13:57:03.223090] 64
[2025-04-13 13:57:03.223090] 121
[2025-04-13 13:57:03.223090] 169
[2025-04-13 13:57:03.232295] 225
[2025-04-13 13:57:03.232295] 256
[2025-04-13 13:57:03.232295] 225
[2025-04-13 13:57:03.232295] 169
[2025-04-13 13:57:03.232295] 100
[2025-04-13 13:57:03.232295] 9
[2025-04-13 13:57:03.232295] 9
[2025-04-13 13:57:03.240387] 121
[2025-04-13 13:57:03.240387] 256
[2025-04-13 13:57:03.240387] 324
[2025-04-13 13:57:03.240387] 289
[2025-04-13 13:57:03.241241] 121
[2025-04-13 13:57:03.241241] 9
[2025-04-13 13:57:03.241241] 9
[2025-04-13 13:57:03.248421] 81
[2025-04-13 13:57:03.248421] 169
[2025-04-13 13:57:03.248421] 256
[2025-04-13 13:57:03.248421] 289
[2025-04-13 13:57:03.248421] 256
[2025-04-13 13:57:03.248421] 196
[2025-04-13 13:57:03.248421] 100
[2025-04-13 13:57:03.256780] 36
[2025-04-13 13:57:03.257789] 0
[2025-04-13 13:57:03.257789] 36
[2025-04-13 13:57:03.257789] 144
[2025-04-13 13:57:03.257789] 256
[2025-04-13 13:57:03.257789] 289
[2025-04-13 13:57:03.257789] 196
[2025-04-13 13:57:03.265387] 64
[2025-04-13 13:57:03.265387] 0
[2025-04-13 13:57:03.267411] 25
[2025-04-13 13:57:03.268380] 121
[2025-04-13 13:57:03.268380] 169
[2025-04-13 13:57:03.268380] 225
[2025-04-13 13:57:03.268380] 256
[2025-04-13 13:57:03.274524] 196
[2025-04-13 13:57:03.274524] 144
[2025-04-13 13:57:03.274524] 81
[2025-04-13 13:57:03.274524] 16
[2025-04-13 13:57:03.274524] 0
[2025-04-13 13:57:03.274524] 49
[2025-04-13 13:57:03.274524] 169
[2025-04-13 13:57:03.282354] 256
[2025-04-13 13:57:03.282354] 289
[2025-04-13 13:57:03.282354] 169
[2025-04-13 13:57:03.283264] 36
[2025-04-13 13:57:03.283264] 1
[2025-04-13 13:57:03.283264] 49
[2025-04-13 13:57:03.283264] 121
[2025-04-13 13:57:03.283264] 225
[2025-04-13 13:57:03.292233] 256
[2025-04-13 13:57:03.292233] 256
[2025-04-13 13:57:03.292233] 196
[2025-04-13 13:57:03.292233] 121
[2025-04-13 13:57:03.292233] 64
[2025-04-13 13:57:03.292233] 9
[2025-04-13 13:57:03.292233] 9
[2025-04-13 13:57:03.300450] 81
[2025-04-13 13:57:03.300450] 169
[2025-04-13 13:57:03.300450] 256
[2025-04-13 13:57:03.300450] 225
[2025-04-13 13:57:03.301404] 121
[2025-04-13 13:57:03.301404] 16
[2025-04-13 13:57:03.301404] 4
[2025-04-13 13:57:03.309038] 64
[2025-04-13 13:57:03.309038] 144
[2025-04-13 13:57:03.309038] 196
[2025-04-13 13:57:03.309038] 225
[2025-04-13 13:57:03.309038] 256
[2025-04-13 13:57:03.310029] 169
[2025-04-13 13:57:03.310029] 121
[2025-04-13 13:57:03.317003] 64
[2025-04-13 13:57:03.317003] 9
[2025-04-13 13:57:03.317003] 9
[2025-04-13 13:57:03.318004] 81
[2025-04-13 13:57:03.318004] 196
[2025-04-13 13:57:03.318004] 256
[2025-04-13 13:57:03.318004] 225
[2025-04-13 13:57:03.325874] 100
[2025-04-13 13:57:03.326014] 16
[2025-04-13 13:57:03.326014] 4
[2025-04-13 13:57:03.326014] 81
[2025-04-13 13:57:03.326014] 169
[2025-04-13 13:57:03.326014] 225
[2025-04-13 13:57:03.326014] 289
[2025-04-13 13:57:03.326014] 256
[2025-04-13 13:57:03.334438] 169
[2025-04-13 13:57:03.334438] 100
[2025-04-13 13:57:03.334438] 36
[2025-04-13 13:57:03.335501] 0
[2025-04-13 13:57:03.335501] 49
[2025-04-13 13:57:03.335501] 144
[2025-04-13 13:57:03.335501] 289
[2025-04-13 13:57:03.343630] 289
[2025-04-13 13:57:03.343630] 196
[2025-04-13 13:57:03.343630] 81
[2025-04-13 13:57:03.343630] 1
[2025-04-13 13:57:03.343630] 25
[2025-04-13 13:57:03.343630] 100
[2025-04-13 13:57:03.343630] 196
[2025-04-13 13:57:03.351895] 256
[2025-04-13 13:57:03.351895] 256
[2025-04-13 13:57:03.351895] 225
[2025-04-13 13:57:03.351895] 144
[2025-04-13 13:57:03.351895] 100
[2025-04-13 13:57:03.351895] 16
[2025-04-13 13:57:03.351895] 1
[2025-04-13 13:57:03.360392] 64
[2025-04-13 13:57:03.360392] 196
[2025-04-13 13:57:03.360392] 289
[2025-04-13 13:57:03.360392] 256
[2025-04-13 13:57:03.360392] 144
[2025-04-13 13:57:03.360392] 36
[2025-04-13 13:57:03.360392] 0
[2025-04-13 13:57:03.368750] 36
[2025-04-13 13:57:03.368750] 144
[2025-04-13 13:57:03.368750] 225
[2025-04-13 13:57:03.368750] 289
[2025-04-13 13:57:03.368750] 289
[2025-04-13 13:57:03.368750] 225
[2025-04-13 13:57:03.369641] 144
[2025-04-13 13:57:03.376749] 64
[2025-04-13 13:57:03.376749] 9
[2025-04-13 13:57:03.377611] 4
[2025-04-13 13:57:03.377611] 64
[2025-04-13 13:57:03.377611] 169
[2025-04-13 13:57:03.377611] 256
[2025-04-13 13:57:03.377611] 289
[2025-04-13 13:57:03.385119] 144
[2025-04-13 13:57:03.385973] 36
[2025-04-13 13:57:03.385973] 1
[2025-04-13 13:57:03.385973] 64
[2025-04-13 13:57:03.385973] 169
[2025-04-13 13:57:03.385973] 256
[2025-04-13 13:57:03.385973] 289
[2025-04-13 13:57:03.385973] 256
[2025-04-13 13:57:03.395020] 169
[2025-04-13 13:57:03.395020] 121
[2025-04-13 13:57:03.395020] 64
[2025-04-13 13:57:03.395020] 4
[2025-04-13 13:57:03.395020] 25
[2025-04-13 13:57:03.395020] 100
[2025-04-13 13:57:03.395020] 256
[2025-04-13 13:57:03.403171] 324
[2025-04-13 13:57:03.403171] 256
[2025-04-13 13:57:03.403171] 100
[2025-04-13 13:57:03.403171] 9
[2025-04-13 13:57:03.403171] 16
[2025-04-13 13:57:03.403171] 100
[2025-04-13 13:57:03.403171] 169
[2025-04-13 13:57:03.411224] 225
[2025-04-13 13:57:03.411224] 256
[2025-04-13 13:57:03.411224] 225
[2025-04-13 13:57:03.412240] 169
[2025-04-13 13:57:03.412240] 100
[2025-04-13 13:57:03.412240] 36
[2025-04-13 13:57:03.412240] 0
[2025-04-13 13:57:03.419226] 36
[2025-04-13 13:57:03.420225] 121
[2025-04-13 13:57:03.420225] 196
[2025-04-13 13:57:03.420225] 225
[2025-04-13 13:57:03.420225] 144
[2025-04-13 13:57:03.420225] 49
[2025-04-13 13:57:03.420225] 0
[2025-04-13 13:57:03.427590] 25
[2025-04-13 13:57:03.427590] 100
[2025-04-13 13:57:03.427590] 169
[2025-04-13 13:57:03.427590] 256
[2025-04-13 13:57:03.427590] 256
[2025-04-13 13:57:03.427590] 225
[2025-04-13 13:57:03.427590] 144
[2025-04-13 13:57:03.436415] 81
[2025-04-13 13:57:03.437270] 16
[2025-04-13 13:57:03.437270] 1
[2025-04-13 13:57:03.437270] 64
[2025-04-13 13:57:03.437270] 169
[2025-04-13 13:57:03.437270] 256
[2025-04-13 13:57:03.437270] 256
[2025-04-13 13:57:03.445275] 144
[2025-04-13 13:57:03.445275] 36
[2025-04-13 13:57:03.445275] 0
[2025-04-13 13:57:03.445275] 49
[2025-04-13 13:57:03.445275] 144
[2025-04-13 13:57:03.445275] 196
[2025-04-13 13:57:03.446269] 225
[2025-04-13 13:57:03.453720] 256
[2025-04-13 13:57:03.453720] 196
[2025-04-13 13:57:03.453720] 144
[2025-04-13 13:57:03.453720] 64
[2025-04-13 13:57:03.453720] 4
[2025-04-13 13:57:03.453720] 16
[2025-04-13 13:57:03.453720] 100
[2025-04-13 13:57:03.462818] 196
[2025-04-13 13:57:03.462818] 256
[2025-04-13 13:57:03.462818] 196
[2025-04-13 13:57:03.462818] 100
[2025-04-13 13:57:03.462818] 9
[2025-04-13 13:57:03.462818] 9
[2025-04-13 13:57:03.462818] 81
[2025-04-13 13:57:03.463701] 144
[2025-04-13 13:57:03.471696] 196
[2025-04-13 13:57:03.471696] 225
[2025-04-13 13:57:03.471696] 196
[2025-04-13 13:57:03.471696] 169
[2025-04-13 13:57:03.471696] 121
[2025-04-13 13:57:03.471696] 49
[2025-04-13 13:57:03.472672] 1
[2025-04-13 13:57:03.479972] 16
[2025-04-13 13:57:03.479972] 121
[2025-04-13 13:57:03.479972] 225
[2025-04-13 13:57:03.479972] 225
[2025-04-13 13:57:03.479972] 144
[2025-04-13 13:57:03.479972] 49
[2025-04-13 13:57:03.479972] 0
[2025-04-13 13:57:03.486558] 25
[2025-04-13 13:57:03.487573] 100
[2025-04-13 13:57:03.487573] 169
[2025-04-13 13:57:03.487573] 196
[2025-04-13 13:57:03.487573] 196
[2025-04-13 13:57:03.488569] 196
[2025-04-13 13:57:03.488569] 121
[2025-04-13 13:57:03.496862] 81
[2025-04-13 13:57:03.496862] 36
[2025-04-13 13:57:03.496862] 0
[2025-04-13 13:57:03.496862] 36
[2025-04-13 13:57:03.496862] 121
[2025-04-13 13:57:03.497839] 196
[2025-04-13 13:57:03.497839] 256
[2025-04-13 13:57:03.504829] 169
[2025-04-13 13:57:03.504829] 64
[2025-04-13 13:57:03.504829] 1
[2025-04-13 13:57:03.504829] 16
[2025-04-13 13:57:03.505831] 81
[2025-04-13 13:57:03.505831] 169
[2025-04-13 13:57:03.505831] 225
[2025-04-13 13:57:03.513897] 256
[2025-04-13 13:57:03.513897] 225
[2025-04-13 13:57:03.513897] 144
[2025-04-13 13:57:03.513897] 64
[2025-04-13 13:57:03.513897] 16
[2025-04-13 13:57:03.514941] 1
[2025-04-13 13:57:03.514941] 49
[2025-04-13 13:57:03.514941] 144
[2025-04-13 13:57:03.522939] 256
[2025-04-13 13:57:03.522939] 225
[2025-04-13 13:57:03.522939] 121
[2025-04-13 13:57:03.522939] 36
[2025-04-13 13:57:03.522939] 0
[2025-04-13 13:57:03.523895] 49
[2025-04-13 13:57:03.523895] 144
[2025-04-13 13:57:03.531034] 225
[2025-04-13 13:57:03.531034] 289
[2025-04-13 13:57:03.531034] 256
[2025-04-13 13:57:03.531034] 196
[2025-04-13 13:57:03.531034] 100
[2025-04-13 13:57:03.531034] 49
[2025-04-13 13:57:03.531034] 4
[2025-04-13 13:57:03.539727] 9
[2025-04-13 13:57:03.539727] 81
[2025-04-13 13:57:03.539727] 169
[2025-04-13 13:57:03.539727] 225
[2025-04-13 13:57:03.539727] 196
[2025-04-13 13:57:03.539727] 100
[2025-04-13 13:57:03.539727] 25
[2025-04-13 13:57:03.539727] 1
[2025-04-13 13:57:03.547864] 49
[2025-04-13 13:57:03.547864] 144
[2025-04-13 13:57:03.547864] 225
[2025-04-13 13:57:03.547864] 289
[2025-04-13 13:57:03.547864] 225
[2025-04-13 13:57:03.547864] 169
[2025-04-13 13:57:03.556457] 100
[2025-04-13 13:57:03.556457] 49
[2025-04-13 13:57:03.556457] 1
[2025-04-13 13:57:03.556788] 16
[2025-04-13 13:57:03.556788] 121
[2025-04-13 13:57:03.556788] 196
[2025-04-13 13:57:03.556788] 256
[2025-04-13 13:57:03.565447] 196
[2025-04-13 13:57:03.565447] 64
[2025-04-13 13:57:03.565447] 1
[2025-04-13 13:57:03.565447] 16
[2025-04-13 13:57:03.565447] 81
[2025-04-13 13:57:03.565447] 169
[2025-04-13 13:57:03.565447] 225
[2025-04-13 13:57:03.565447] 256
[2025-04-13 13:57:03.574449] 196
[2025-04-13 13:57:03.574449] 144
[2025-04-13 13:57:03.574449] 81
[2025-04-13 13:57:03.574449] 25
[2025-04-13 13:57:03.574449] 0
[2025-04-13 13:57:03.574449] 25
[2025-04-13 13:57:03.574449] 100
[2025-04-13 13:57:03.582748] 225
[2025-04-13 13:57:03.582748] 256
[2025-04-13 13:57:03.582748] 144
[2025-04-13 13:57:03.582748] 49
[2025-04-13 13:57:03.582748] 0
[2025-04-13 13:57:03.583751] 25
[2025-04-13 13:57:03.583751] 100
[2025-04-13 13:57:03.590906] 169
[2025-04-13 13:57:03.590906] 225
[2025-04-13 13:57:03.590906] 256
[2025-04-13 13:57:03.590906] 225
[2025-04-13 13:57:03.590906] 121
[2025-04-13 13:57:03.590906] 64
[2025-04-13 13:57:03.590906] 25
[2025-04-13 13:57:03.590906] 1
[2025-04-13 13:57:03.600429] 36
[2025-04-13 13:57:03.600429] 144
[2025-04-13 13:57:03.600429] 256
[2025-04-13 13:57:03.600429] 256
[2025-04-13 13:57:03.600429] 169
[2025-04-13 13:57:03.600429] 49
[2025-04-13 13:57:03.600429] 0
[2025-04-13 13:57:03.607560] 49
[2025-04-13 13:57:03.607560] 121
[2025-04-13 13:57:03.607560] 225
[2025-04-13 13:57:03.607560] 256
[2025-04-13 13:57:03.608458] 256
[2025-04-13 13:57:03.608458] 196
[2025-04-13 13:57:03.617026] 121
[2025-04-13 13:57:03.617026] 64
[2025-04-13 13:57:03.617026] 9
[2025-04-13 13:57:03.617026] 4
[2025-04-13 13:57:03.617026] 64
[2025-04-13 13:57:03.617026] 169
[2025-04-13 13:57:03.617026] 256
[2025-04-13 13:57:03.617026] 225
[2025-04-13 13:57:03.625026] 121
[2025-04-13 13:57:03.625888] 25
[2025-04-13 13:57:03.625888] 4
[2025-04-13 13:57:03.625888] 49
[2025-04-13 13:57:03.625888] 144
[2025-04-13 13:57:03.625888] 196
[2025-04-13 13:57:03.625888] 256
[2025-04-13 13:57:03.634233] 225
[2025-04-13 13:57:03.634233] 196
[2025-04-13 13:57:03.634233] 121
[2025-04-13 13:57:03.634233] 49
[2025-04-13 13:57:03.634233] 4
[2025-04-13 13:57:03.634233] 16
[2025-04-13 13:57:03.635261] 100
[2025-04-13 13:57:03.643101] 196
[2025-04-13 13:57:03.643101] 256
[2025-04-13 13:57:03.643101] 196
[2025-04-13 13:57:03.643101] 64
[2025-04-13 13:57:03.643101] 1
[2025-04-13 13:57:03.643101] 16
[2025-04-13 13:57:03.643101] 100
[2025-04-13 13:57:03.643101] 169
[2025-04-13 13:57:03.651253] 225
[2025-04-13 13:57:03.651253] 225
[2025-04-13 13:57:03.652141] 225
[2025-04-13 13:57:03.652141] 121
[2025-04-13 13:57:03.652141] 64
[2025-04-13 13:57:03.652141] 25
[2025-04-13 13:57:03.652141] 0
[2025-04-13 13:57:03.660270] 36
[2025-04-13 13:57:03.660270] 121
[2025-04-13 13:57:03.660270] 225
[2025-04-13 13:57:03.660270] 256
[2025-04-13 13:57:03.660270] 169
[2025-04-13 13:57:03.660270] 81
[2025-04-13 13:57:03.660270] 4
[2025-04-13 13:57:03.667498] 16
[2025-04-13 13:57:03.667498] 100
[2025-04-13 13:57:03.667498] 196
[2025-04-13 13:57:03.667498] 256
[2025-04-13 13:57:03.667498] 289
[2025-04-13 13:57:03.667498] 225
[2025-04-13 13:57:03.667498] 169
[2025-04-13 13:57:03.676384] 100
[2025-04-13 13:57:03.677356] 36
[2025-04-13 13:57:03.677356] 0
[2025-04-13 13:57:03.677356] 49
[2025-04-13 13:57:03.677356] 144
[2025-04-13 13:57:03.677356] 256
[2025-04-13 13:57:03.678360] 225
[2025-04-13 13:57:03.685301] 121
[2025-04-13 13:57:03.685301] 36
[2025-04-13 13:57:03.685301] 0
[2025-04-13 13:57:03.685301] 25
[2025-04-13 13:57:03.685301] 100
[2025-04-13 13:57:03.685301] 196
[2025-04-13 13:57:03.685301] 256
[2025-04-13 13:57:03.694050] 256
[2025-04-13 13:57:03.694050] 196
[2025-04-13 13:57:03.694050] 100
[2025-04-13 13:57:03.694050] 49
[2025-04-13 13:57:03.694050] 4
[2025-04-13 13:57:03.694050] 4
[2025-04-13 13:57:03.694050] 64
[2025-04-13 13:57:03.694050] 169
[2025-04-13 13:57:03.703154] 256
[2025-04-13 13:57:03.703154] 225
[2025-04-13 13:57:03.703154] 100
[2025-04-13 13:57:03.703154] 16
[2025-04-13 13:57:03.703154] 1
[2025-04-13 13:57:03.703154] 36
[2025-04-13 13:57:03.703154] 144
[2025-04-13 13:57:03.711250] 196
[2025-04-13 13:57:03.711250] 256
[2025-04-13 13:57:03.711250] 225
[2025-04-13 13:57:03.711250] 196
[2025-04-13 13:57:03.711250] 121
[2025-04-13 13:57:03.711250] 49
[2025-04-13 13:57:03.711250] 4
[2025-04-13 13:57:03.719730] 16
[2025-04-13 13:57:03.719730] 100
[2025-04-13 13:57:03.719730] 225
[2025-04-13 13:57:03.719730] 289
[2025-04-13 13:57:03.719730] 225
[2025-04-13 13:57:03.719730] 100
[2025-04-13 13:57:03.719730] 9
[2025-04-13 13:57:03.726896] 16
[2025-04-13 13:57:03.727756] 100
[2025-04-13 13:57:03.727756] 169
[2025-04-13 13:57:03.727756] 256
[2025-04-13 13:57:03.727756] 225
[2025-04-13 13:57:03.727756] 225
[2025-04-13 13:57:03.735760] 169
[2025-04-13 13:57:03.736784] 100
[2025-04-13 13:57:03.736784] 36
[2025-04-13 13:57:03.736784] 0
[2025-04-13 13:57:03.736784] 49
[2025-04-13 13:57:03.736784] 144
[2025-04-13 13:57:03.736784] 225
[2025-04-13 13:57:03.736784] 256
[2025-04-13 13:57:03.744849] 169
[2025-04-13 13:57:03.744849] 49
[2025-04-13 13:57:03.744849] 0
[2025-04-13 13:57:03.744849] 25
[2025-04-13 13:57:03.744849] 121
[2025-04-13 13:57:03.745857] 169
[2025-04-13 13:57:03.745857] 225
[2025-04-13 13:57:03.753613] 256
[2025-04-13 13:57:03.753613] 196
[2025-04-13 13:57:03.753613] 144
[2025-04-13 13:57:03.753613] 100
[2025-04-13 13:57:03.753613] 25
[2025-04-13 13:57:03.753613] 1
[2025-04-13 13:57:03.753613] 49
[2025-04-13 13:57:03.761760] 169
[2025-04-13 13:57:03.761760] 289
[2025-04-13 13:57:03.761760] 256
[2025-04-13 13:57:03.761760] 144
[2025-04-13 13:57:03.761760] 25
[2025-04-13 13:57:03.761760] 0
[2025-04-13 13:57:03.761760] 49
[2025-04-13 13:57:03.769622] 144
[2025-04-13 13:57:03.769622] 256
[2025-04-13 13:57:03.770662] 289
[2025-04-13 13:57:03.770662] 256
[2025-04-13 13:57:03.770662] 225
[2025-04-13 13:57:03.770662] 121
[2025-04-13 13:57:03.770662] 49
[2025-04-13 13:57:03.777925] 4
[2025-04-13 13:57:03.777925] 16
[2025-04-13 13:57:03.778907] 100
[2025-04-13 13:57:03.778907] 225
[2025-04-13 13:57:03.778907] 289
[2025-04-13 13:57:03.778907] 196
[2025-04-13 13:57:03.778907] 100
[2025-04-13 13:57:03.786881] 9
[2025-04-13 13:57:03.786881] 9
[2025-04-13 13:57:03.786881] 81
[2025-04-13 13:57:03.786881] 169
[2025-04-13 13:57:03.787876] 256
[2025-04-13 13:57:03.787876] 256
[2025-04-13 13:57:03.787876] 256
[2025-04-13 13:57:03.794874] 169
[2025-04-13 13:57:03.794874] 100
[2025-04-13 13:57:03.794874] 36
[2025-04-13 13:57:03.795874] 0
[2025-04-13 13:57:03.795874] 36
[2025-04-13 13:57:03.795874] 121
[2025-04-13 13:57:03.795874] 225
[2025-04-13 13:57:03.804058] 289
[2025-04-13 13:57:03.804058] 196
[2025-04-13 13:57:03.804058] 64
[2025-04-13 13:57:03.804058] 1
[2025-04-13 13:57:03.804058] 25
[2025-04-13 13:57:03.804058] 144
[2025-04-13 13:57:03.804058] 225
[2025-04-13 13:57:03.804058] 256
[2025-04-13 13:57:03.813044] 256
[2025-04-13 13:57:03.813044] 225
[2025-04-13 13:57:03.813044] 144
[2025-04-13 13:57:03.813044] 64
[2025-04-13 13:57:03.813044] 25
[2025-04-13 13:57:03.813044] 1
[2025-04-13 13:57:03.813044] 64
[2025-04-13 13:57:03.821448] 144
[2025-04-13 13:57:03.821448] 225
[2025-04-13 13:57:03.821448] 256
[2025-04-13 13:57:03.821448] 169
[2025-04-13 13:57:03.821448] 36
[2025-04-13 13:57:03.821448] 0
[2025-04-13 13:57:03.822338] 36
[2025-04-13 13:57:03.830074] 144
[2025-04-13 13:57:03.830074] 225
[2025-04-13 13:57:03.830074] 289
[2025-04-13 13:57:03.830074] 256
[2025-04-13 13:57:03.830074] 196
[2025-04-13 13:57:03.830074] 100
[2025-04-13 13:57:03.830074] 49
[2025-04-13 13:57:03.838348] 4
[2025-04-13 13:57:03.838348] 4
[2025-04-13 13:57:03.838348] 64
[2025-04-13 13:57:03.838348] 169
[2025-04-13 13:57:03.838348] 256
[2025-04-13 13:57:03.838348] 256
[2025-04-13 13:57:03.838348] 121
[2025-04-13 13:57:03.846352] 25
[2025-04-13 13:57:03.847209] 1
[2025-04-13 13:57:03.847209] 49
[2025-04-13 13:57:03.847209] 100
[2025-04-13 13:57:03.847209] 196
[2025-04-13 13:57:03.847209] 225
[2025-04-13 13:57:03.847209] 289
[2025-04-13 13:57:03.855436] 225
[2025-04-13 13:57:03.855436] 169
[2025-04-13 13:57:03.855436] 64
[2025-04-13 13:57:03.855436] 4
[2025-04-13 13:57:03.855436] 16
[2025-04-13 13:57:03.855436] 100
[2025-04-13 13:57:03.855941] 225
[2025-04-13 13:57:03.855941] 289
[2025-04-13 13:57:03.863947] 225
[2025-04-13 13:57:03.864955] 100
[2025-04-13 13:57:03.864955] 9
[2025-04-13 13:57:03.864955] 9
[2025-04-13 13:57:03.864955] 81
[2025-04-13 13:57:03.865981] 169
[2025-04-13 13:57:03.865981] 256
[2025-04-13 13:57:03.872735] 289
[2025-04-13 13:57:03.872735] 256
[2025-04-13 13:57:03.872735] 196
[2025-04-13 13:57:03.872735] 100
[2025-04-13 13:57:03.872735] 36
[2025-04-13 13:57:03.873624] 0
[2025-04-13 13:57:03.873624] 36
[2025-04-13 13:57:03.881593] 169
[2025-04-13 13:57:03.881593] 289
[2025-04-13 13:57:03.881593] 289
[2025-04-13 13:57:03.881593] 196
[2025-04-13 13:57:03.881593] 49
